522
462
443
448
468
497
527
563
597
626
649
663
671
673
670
663
654
640
622
607
594
580
567
554
544
537
533
532
531
534
536
540
547
555
562
567
573
576
577
577
578
576
573
570
564
558
551
543
539
535
530
525
521
518
515
513
513
514
517
516
516
516
516
518
522
524
525
526
526
524
518
515
514
512
511
511
512
517
523
531
546
562
580
598
618
636
652
666
676
680
678
675
667
658
644
628
614
599
582
567
554
542
532
523
519
517
517
519
524
529
534
541
549
558
567
573
577
577
574
571
569
564
558
552
547
541
533
529
527
524
522
517
514
510
506
502
502
501
500
499
500
502
501
502
504
505
505
504
504
504
501
500
500
500
501
502
506
513
522
533
552
571
591
611
630
646
659
667
672
672
668
660
648
632
616
598
583
567
553
540
527
515
506
500
500
501
508
516
524
531
539
547
560
567
572
575
576
575
571
566
562
556
550
544
538
532
526
520
518
517
516
517
519
519
516
515
515
516
515
517
517
517
514
511
511
512
512
513
517
520
525
533
546
565
587
609
631
653
671
688
702
710
712
708
699
684
665
645
626
606
585
566
550
536
526
516
512
511
514
520
528
539
548
556
565
574
580
585
587
588
585
579
576
569
560
550
541
532
521
513
508
504
498
496
496
495
493
491
493
495
497
499
501
503
504
505
506
503
501
502
503
507
513
524
543
568
595
624
653
682
707
729
745
755
759
756
745
729
709
685
665
645
623
601
581
565
551
540
533
529
527
529
532
535
541
547
558
565
570
572
574
574
571
566
561
554
547
539
531
524
515
508
503
502
498
496
495
494
490
487
489
490
490
490
491
491
492
493
495
497
498
498
498
496
494
492
493
497
503
515
533
557
586
618
654
688
718
741
757
765
763
754
740
720
697
673
648
622
597
576
558
541
527
516
509
506
505
506
511
518
526
534
541
547
552
556
559
559
557
552
545
537
527
518
509
501
491
482
475
470
467
465
465
466
468
469
472
475
477
478
481
483
483
484
483
483
482
482
484
485
484
481
477
477
477
477
479
484
496
514
538
568
601
634
669
698
720
734
740
737
727
711
690
665
639
611
585
561
537
517
504
492
482
477
476
477
480
483
491
500
507
515
523
528
530
531
531
529
525
518
509
498
487
476
470
466
464
461
460
457
454
454
456
458
460
461
461
462
460
457
459
462
462
462
463
463
463
462
462
463
462
461
460
459
457
454
453
453
453
452
456
464
476
494
523
555
590
624
655
680
697
708
711
704
692
673
650
624
598
572
550
529
511
493
480
468
462
458
458
459
463
470
478
487
496
503
512
517
520
519
518
513
508
502
497
491
481
474
468
461
454
447
446
446
445
445
444
442
440
441
445
448
451
450
450
452
454
455
460
462
463
463
463
462
460
458
456
456
454
450
449
448
445
443
447
454
463
478
499
524
552
584
618
645
670
689
701
703
697
685
672
654
631
605
579
554
529
509
493
479
470
464
461
461
463
468
476
486
495
504
512
518
522
524
526
526
524
521
516
508
498
491
485
479
473
465
462
457
454
450
450
449
447
447
451
455
455
457
461
465
470
472
473
474
473
471
471
471
469
468
466
463
459
454
455
456
455
455
455
454
457
464
478
496
518
546
579
611
641
667
688
701
706
700
687
671
648
624
602
578
557
535
515
499
486
477
473
469
468
468
472
477
481
486
492
497
501
505
509
510
509
507
505
501
497
491
484
477
470
462
457
453
450
445
443
440
439
439
442
444
445
445
447
449
449
449
450
449
448
449
449
448
444
442
444
445
444
443
443
441
438
435
433
432
432
431
430
431
436
444
458
476
496
515
541
571
595
619
637
648
651
647
638
623
603
580
560
541
523
507
493
481
469
462
457
456
455
455
457
460
461
463
473
480
482
485
487
488
488
487
485
482
478
475
471
463
456
452
450
446
441
438
437
435
433
432
433
434
434
434
435
436
436
436
437
440
441
443
444
444
442
441
441
439
439
439
439
439
437
434
434
434
433
433
435
437
438
440
443
450
462
477
497
518
539
563
587
605
618
623
625
619
611
595
580
564
549
532
517
503
490
479
473
470
469
469
470
471
472
474
478
483
487
491
493
494
493
493
497
497
494
490
485
479
475
468
465
463
459
454
449
446
444
443
444
445
447
447
447
448
448
447
448
449
450
449
450
451
450
450
453
456
457
457
456
454
450
447
445
441
438
437
440
440
439
442
446
450
456
466
481
497
513
530
554
573
592
608
617
622
617
609
601
591
579
566
550
535
518
504
493
484
479
474
471
474
474
475
482
488
492
496
499
502
502
501
499
499
500
498
496
493
488
479
477
476
473
472
469
466
461
458
458
456
455
456
457
458
458
456
459
458
459
460
462
462
462
463
464
465
465
463
462
461
458
457
458
458
457
456
454
452
448
447
452
459
467
478
492
506
523
543
567
588
605
616
622
623
617
608
596
582
567
553
538
524
513
503
499
495
492
490
487
485
484
486
491
495
498
502
503
505
505
506
510
510
510
507
504
502
498
493
489
484
479
477
472
467
464
464
466
468
466
466
465
464
462
461
463
465
466
467
469
471
473
473
475
476
475
473
472
471
468
467
468
467
467
466
465
465
464
464
469
475
485
497
511
527
548
569
591
609
623
630
633
631
624
618
610
598
584
572
560
545
531
523
516
509
503
498
495
495
493
495
500
504
510
516
522
525
527
529
529
527
523
515
508
503
498
493
491
487
483
480
480
480
480
479
480
478
478
479
479
479
478
475
474
473
475
476
475
474
473
472
474
474
476
478
478
477
479
479
479
478
475
471
471
473
473
474
478
485
493
505
520
538
557
577
599
614
625
629
631
627
618
605
593
579
566
553
540
528
518
509
504
501
498
497
498
498
498
500
503
507
511
514
517
519
520
519
521
520
519
516
512
507
501
496
492
488
484
480
478
476
474
471
471
473
473
472
470
469
468
467
470
472
473
475
478
479
479
478
480
481
482
483
482
481
480
477
477
476
474
473
473
473
473
477
487
497
512
527
548
568
586
604
619
629
634
633
628
617
604
588
576
563
551
539
529
519
510
503
499
497
496
496
496
497
500
503
508
513
518
522
524
525
524
522
521
517
513
508
503
499
494
489
486
485
482
479
477
474
473
471
472
474
475
476
478
478
478
476
477
480
480
480
480
480
479
479
478
477
476
476
476
476
474
472
473
475
475
475
477
484
493
505
522
544
564
584
601
615
624
630
633
631
624
615
605
592
577
561
548
537
527
519
512
507
502
498
499
501
503
506
510
513
516
520
523
525
526
525
523
519
515
510
506
503
500
495
489
486
482
479
478
475
475
474
473
473
473
472
474
478
480
480
481
482
483
482
482
481
480
478
478
476
474
473
474
474
473
473
473
470
468
466
469
471
475
483
491
502
514
530
553
573
590
601
608
611
608
604
596
585
573
561
549
537
526
515
509
501
497
493
491
489
486
487
488
488
491
493
496
499
501
500
502
504
505
505
501
497
493
486
482
478
475
472
470
468
466
466
468
469
469
468
468
467
466
466
466
467
468
468
468
467
466
463
465
465
464
463
463
462
459
456
456
455
454
452
451
450
448
448
450
453
460
467
478
491
504
518
535
552
564
575
582
586
585
578
575
567
556
547
536
526
516
506
500
493
488
483
482
480
479
480
482
485
489
493
497
501
501
500
500
500
499
498
496
492
487
483
483
481
478
476
475
474
471
470
471
470
470
470
469
470
470
470
471
472
473
474
474
474
471
470
471
472
472
470
469
469
468
468
469
471
472
472
471
469
466
465
467
470
473
479
488
498
509
520
535
552
565
575
581
583
580
575
570
561
551
541
532
523
514
506
503
499
497
495
492
490
488
488
491
494
497
500
502
504
504
504
506
507
506
503
501
498
494
488
485
482
478
476
474
472
470
471
474
476
478
478
478
476
475
473
473
473
472
470
468
467
467
466
468
469
471
471
470
468
466
464
462
461
460
459
460
459
457
457
460
463
469
475
483
492
503
514
526
538
548
556
562
565
562
559
556
551
544
536
528
521
514
506
502
500
498
496
493
492
488
485
489
491
495
497
501
503
503
503
504
504
503
501
500
498
496
494
495
497
495
493
490
486
482
477
476
474
471
470
472
473
472
471
470
470
471
472
473
474
472
472
473
472
471
469
468
468
469
470
471
472
471
470
470
469
467
464
463
465
468
471
475
481
489
497
510
520
531
543
553
560
563
563
563
560
555
549
540
532
525
519
516
513
510
506
503
501
497
494
494
496
498
498
499
500
501
504
508
509
512
514
514
512
508
504
502
498
496
492
489
486
482
477
479
481
481
480
480
479
479
478
480
480
480
479
480
479
480
479
483
484
484
483
481
479
476
474
473
472
472
472
472
472
471
471
475
478
480
481
485
491
496
501
510
519
530
539
547
555
560
560
562
562
560
553
548
542
538
532
527
519
513
510
508
506
502
499
498
499
500
501
503
509
512
514
516
516
516
515
514
514
510
506
505
505
501
498
498
495
493
491
488
488
488
486
486
486
484
481
481
483
483
484
487
486
486
483
482
484
485
486
487
486
482
481
484
486
486
483
481
479
478
478
480
480
483
487
493
502
511
523
539
554
566
575
581
584
585
583
581
575
567
559
552
544
537
529
527
524
519
516
516
515
514
515
516
516
519
521
522
522
522
519
520
523
526
524
522
520
517
516
516
514
510
506
502
499
496
494
496
496
497
498
496
496
497
497
497
498
496
495
493
492
490
490
490
489
492
494
492
491
491
489
488
489
489
490
490
490
489
488
491
497
506
514
524
533
544
556
569
583
591
599
602
602
597
592
588
583
576
569
560
552
542
533
530
525
524
523
524
526
526
527
533
538
539
538
538
541
540
540
538
536
537
537
535
532
528
524
523
520
518
517
518
516
514
511
507
507
506
507
508
509
509
508
510
510
513
513
512
509
505
503
502
502
503
504
502
500
497
498
500
502
501
502
504
506
507
508
516
526
540
553
571
587
603
614
626
635
641
643
643
638
628
619
610
599
587
576
570
563
556
549
547
543
540
540
541
543
545
548
552
555
558
560
562
563
562
559
560
559
558
553
547
542
535
530
525
523
518
515
512
510
506
506
508
509
510
511
512
514
513
512
513
516
517
517
516
515
512
510
512
511
510
510
510
509
505
501
498
498
499
504
512
521
533
549
568
587
606
624
640
654
661
663
663
659
652
640
628
615
601
587
580
572
564
556
549
544
540
540
542
543
547
552
557
561
564
567
568
568
569
567
567
564
559
552
547
539
533
527
523
519
516
513
512
509
507
506
506
508
507
508
509
510
510
509
509
508
506
505
507
508
507
505
502
498
494
492
490
486
484
484
490
497
508
524
547
571
596
620
643
663
678
688
693
693
686
673
660
645
628
611
597
584
572
562
554
548
541
537
537
537
536
537
541
543
547
551
558
562
564
563
562
562
559
554
550
542
533
524
519
513
505
497
495
492
490
487
486
486
486
487
490
490
490
489
490
492
494
495
499
500
499
497
495
491
486
483
482
480
479
481
479
481
485
492
504
518
537
558
580
603
626
650
670
687
696
697
694
684
669
650
632
615
599
583
568
553
541
531
523
520
518
520
522
526
528
530
535
540
544
548
553
554
553
551
549
544
538
531
523
516
507
497
495
492
488
484
480
475
473
472
475
478
480
481
481
480
480
481
485
490
492
493
493
494
492
490
487
484
480
478
476
476
472
469
471
472
473
476
484
494
506
523
546
572
600
626
650
668
682
689
691
689
681
666
649
628
606
584
567
552
541
529
518
510
505
501
505
509
511
516
522
527
529
532
538
540
541
540
537
532
526
521
514
508
502
495
491
486
478
473
470
472
472
472
471
468
467
469
471
473
477
478
480
480
481
480
481
482
482
479
478
479
476
474
475
475
475
474
469
465
464
463
467
473
483
496
513
536
564
591
623
653
677
692
699
701
694
681
666
647
626
604
583
564
546
531
519
510
502
498
496
496
494
495
502
509
515
523
528
533
536
535
534
532
530
526
522
515
507
497
490
483
476
468
464
461
461
461
464
464
465
465
467
467
468
467
469
471
471
471
473
475
475
475
477
478
477
476
472
468
465
462
461
460
460
461
464
472
480
493
515
544
577
608
636
663
680
691
698
696
688
674
657
637
612
587
569
554
538
524
512
502
493
486
484
483
485
489
496
504
510
515
524
530
533
532
529
526
520
514
509
502
494
485
477
472
465
464
467
467
468
467
466
466
465
464
466
467
468
467
468
468
468
467
470
472
473
474
474
472
469
468
468
465
463
462
458
456
454
452
454
457
465
476
490
505
525
554
584
614
642
667
688
698
700
697
691
676
658
639
617
597
577
555
540
526
515
505
497
492
486
485
491
496
503
509
513
517
523
524
526
527
531
527
521
514
506
498
494
489
484
479
473
467
462
459
457
456
457
460
458
457
456
456
458
462
464
467
468
467
467
467
469
472
473
474
472
470
468
467
465
463
463
462
459
458
457
459
459
459
457
462
472
488
508
531
566
600
633
668
697
718
729
732
724
708
687
666
644
620
594
567
548
533
519
511
504
497
491
486
487
493
498
504
510
516
521
526
527
528
531
534
534
528
518
510
505
498
491
484
475
469
463
460
459
456
455
455
454
453
454
457
462
464
465
469
468
470
467
464
467
472
475
472
470
470
470
469
466
464
462
460
458
458
455
453
453
449
448
452
460
472
488
507
533
563
597
637
671
697
718
730
734
729
718
701
679
656
631
603
578
556
538
523
510
500
491
485
483
486
490
496
499
505
512
519
527
534
534
532
533
533
528
517
512
508
503
496
489
481
469
465
459
453
451
455
457
459
457
458
459
460
459
460
463
461
463
464
465
466
468
470
471
471
470
467
469
469
471
470
471
468
464
457
456
457
458
457
457
457
460
464
480
499
524
556
593
630
665
695
721
739
749
748
739
723
700
672
647
618
593
569
548
523
507
494
484
478
476
478
483
489
495
503
512
517
524
528
532
534
534
533
532
527
520
512
503
490
479
470
469
467
465
461
457
453
449
447
448
449
451
454
456
461
464
465
470
472
474
471
471
470
470
468
467
468
468
466
467
464
461
460
463
464
462
458
452
450
447
450
458
468
487
507
535
572
610
647
685
714
736
748
752
744
729
708
684
658
633
608
583
557
533
512
502
492
487
483
480
477
480
483
494
507
517
527
535
540
541
542
542
538
533
526
518
508
498
487
478
469
465
461
457
454
451
448
450
451
451
452
454
457
458
458
462
461
463
464
466
468
468
467
468
468
468
469
468
466
463
459
457
455
453
452
453
452
448
445
447
451
459
471
489
514
543
579
618
656
694
724
745
754
754
746
733
711
684
658
629
600
571
547
527
512
500
490
481
476
475
477
486
494
501
509
517
525
531
534
537
538
536
531
523
515
505
495
487
480
471
466
462
461
457
456
455
454
452
453
453
453
453
456
461
465
466
467
467
467
465
463
463
463
465
466
467
465
462
458
457
458
458
457
457
455
452
448
447
448
452
459
473
495
520
552
591
631
669
700
723
740
746
745
737
721
696
668
640
611
583
561
543
525
512
499
489
484
480
479
483
485
489
497
506
514
520
525
531
534
535
531
525
519
511
504
496
489
479
469
462
458
452
447
448
448
450
452
453
455
454
454
455
457
459
460
461
464
465
466
470
472
472
472
470
467
464
461
459
458
454
451
451
450
448
447
448
449
452
458
468
480
496
521
554
589
626
665
697
721
735
743
744
735
717
694
667
636
604
576
554
534
520
507
496
485
477
473
475
477
483
490
494
501
508
514
524
529
531
530
528
524
517
508
502
494
485
476
467
461
455
449
444
442
440
442
444
445
446
448
452
455
461
465
469
470
467
465
466
465
464
464
466
465
462
459
459
458
455
456
455
451
449
449
452
453
457
462
471
486
504
525
559
601
640
671
700
722
737
742
737
723
700
673
647
622
596
571
548
527
512
497
487
483
476
475
480
481
486
490
498
504
507
511
519
525
529
529
526
517
510
501
494
484
475
469
466
460
454
443
442
442
444
444
444
445
447
445
446
448
452
456
459
459
460
461
461
460
462
463
464
462
461
456
455
454
454
453
453
450
446
443
444
445
451
462
478
500
525
557
594
629
663
692
715
729
734
728
719
702
674
646
618
592
569
549
532
516
500
486
479
476
475
474
478
484
489
495
503
508
507
509
515
519
520
511
505
499
493
490
486
477
468
464
463
459
455
451
450
448
448
448
449
449
444
444
449
455
459
460
461
461
460
460
459
458
454
454
457
459
458
458
454
452
451
453
453
451
448
447
447
448
449
458
470
490
515
546
580
615
653
682
706
723
729
726
716
699
677
652
625
600
574
554
536
523
510
498
485
478
476
473
474
480
486
494
499
504
509
514
520
524
525
523
513
505
495
489
481
476
468
463
460
457
447
444
445
445
445
448
451
450
448
449
454
454
452
455
459
462
462
461
461
464
463
462
461
462
460
457
452
449
449
449
447
442
437
438
444
450
457
469
485
506
532
565
602
639
670
696
714
722
724
715
703
685
660
635
610
586
562
540
523
510
495
484
477
473
473
475
480
483
489
495
503
509
509
511
514
517
517
514
507
499
491
484
479
472
464
459
454
450
446
443
444
443
444
446
448
451
453
455
457
460
463
466
467
466
464
460
458
457
456
458
457
457
456
457
458
459
459
458
454
451
447
444
442
443
450
461
477
498
521
551
585
617
649
676
698
708
712
708
698
682
659
635
609
585
562
539
524
510
499
488
481
476
472
473
476
480
482
488
495
505
511
515
520
521
521
518
514
508
502
492
485
479
471
465
461
455
449
444
445
447
449
450
449
449
449
452
454
456
457
457
458
457
457
458
459
459
459
459
459
458
458
456
454
451
448
445
445
443
442
441
446
450
458
470
484
503
527
557
592
622
650
673
691
701
702
692
681
664
643
620
595
573
553
536
522
510
499
490
482
476
472
474
480
486
493
498
502
506
511
513
516
516
515
513
509
501
493
486
481
475
468
463
457
454
449
447
447
447
446
446
446
444
445
447
453
457
458
458
461
463
462
460
462
463
464
464
463
460
458
454
453
451
449
448
447
449
450
455
466
482
497
521
551
581
612
643
672
693
706
711
708
696
677
655
631
600
574
556
537
522
510
498
491
485
478
478
482
486
489
495
504
509
513
519
523
525
525
523
521
516
508
498
491
483
473
466
463
460
450
445
441
440
439
440
444
447
453
456
458
459
459
460
461
465
468
468
468
469
468
464
463
464
462
461
459
456
450
447
450
451
453
458
471
487
507
532
563
598
629
655
678
695
701
700
694
681
664
644
623
600
576
557
543
529
516
506
497
492
489
485
486
487
490
493
499
505
507
513
521
524
527
526
522
516
508
499
490
480
470
466
461
459
458
455
458
461
462
462
462
461
460
460
460
462
460
456
456
461
462
462
464
469
470
471
471
470
465
462
460
457
457
456
454
451
452
458
472
488
508
533
560
588
618
649
677
694
702
706
707
700
684
666
645
621
598
579
563
549
533
520
508
496
489
489
490
489
489
495
504
515
523
529
534
533
534
534
533
529
518
508
502
493
486
479
475
470
466
463
457
456
457
458
460
462
463
463
464
465
466
468
468
468
469
473
475
474
472
473
475
474
469
466
465
465
464
462
462
460
461
466
480
496
516
541
571
602
630
656
680
691
698
699
701
693
680
660
639
612
589
570
556
541
530
518
510
503
493
486
487
493
498
503
508
510
514
518
524
525
523
519
519
516
511
500
491
483
477
471
469
463
454
449
450
450
450
449
451
454
455
454
456
460
466
469
471
472
472
465
460
457
458
458
459
458
457
455
458
458
462
466
469
478
491
507
529
556
583
607
634
648
661
670
679
679
670
659
644
625
604
582
563
545
527
510
495
483
475
468
472
475
478
480
484
490
494
498
504
507
511
514
514
513
510
504
497
492
484
476
470
465
458
452
449
448
447
447
447
445
443
444
448
452
456
459
461
464
466
466
466
463
460
457
456
455
452
450
454
458
466
477
489
504
523
546
572
597
622
639
653
660
664
659
655
647
633
616
598
578
557
537
521
505
492
481
476
474
472
472
478
485
494
505
516
524
528
529
530
529
528
526
520
511
503
495
489
482
475
469
467
463
461
457
457
457
459
462
464
464
465
466
469
470
472
473
474
473
473
470
472
479
487
498
512
532
557
582
610
636
659
677
689
695
693
686
675
662
646
627
608
592
574
558
546
535
525
516
509
504
499
496
497
501
506
512
518
521
524
527
529
532
533
531
526
520
512
503
496
489
482
475
469
465
464
463
464
465
466
465
465
463
461
459
461
461
460
457
456
454
450
446
445
444
447
454
464
479
497
520
552
585
619
651
676
695
706
711
710
701
689
676
662
644
623
606
590
573
557
543
531
520
508
498
496
496
500
502
507
513
515
518
522
525
528
526
523
518
510
501
493
487
479
468
461
454
449
443
441
439
439
440
440
439
440
441
444
448
452
455
457
458
456
456
457
454
453
455
460
468
480
493
514
539
566
594
623
648
667
680
687
689
684
675
664
648
629
607
589
572
557
542
528
514
501
491
483
478
479
481
483
488
492
499
508
514
517
522
522
520
515
509
502
493
485
478
472
465
458
454
455
455
455
453
452
453
452
452
454
455
454
455
457
458
458
459
463
470
478
489
506
527
551
577
605
630
649
663
673
678
677
670
659
643
626
607
586
566
545
525
509
494
481
470
465
462
460
460
465
472
478
484
490
492
492
494
496
496
494
490
485
480
472
463
458
455
450
445
442
436
430
427
428
428
428
431
433
436
435
435
438
440
441
441
437
435
431
427
428
430
432
439
448
460
477
499
524
551
578
603
623
635
643
643
639
629
615
598
580
561
540
522
506
494
482
470
463
457
451
447
446
446
446
444
445
449
452
453
460
463
463
464
462
459
455
450
446
439
432
426
424
421
417
415
412
411
411
411
412
413
413
413
411
411
412
414
415
415
415
413
415
417
419
418
416
416
415
414
416
420
426
436
450
466
482
500
520
536
551
561
568
571
570
563
556
545
531
518
508
498
487
475
471
467
463
458
452
448
441
435
435
435
439
440
442
443
445
446
448
449
447
446
442
438
433
428
425
425
423
420
416
414
413
413
415
416
417
416
416
415
414
415
415
415
417
418
418
417
416
415
415
416
415
412
409
408
405
402
405
411
418
428
439
453
466
479
497
509
517
524
530
533
531
527
522
515
503
491
481
475
469
465
462
457
448
444
443
443
440
439
442
444
442
444
447
448
448
447
449
449
450
448
446
444
439
432
426
422
419
417
418
417
420
421
423
425
427
426
424
421
421
419
419
420
422
424
425
428
428
428
431
430
428
426
425
424
422
423
426
427
428
430
434
439
446
454
464
471
478
485
493
499
500
499
497
495
494
489
486
483
477
474
473
470
468
466
465
463
460
455
451
449
448
447
448
451
450
452
457
459
461
462
460
457
454
452
451
452
449
445
446
444
443
443
447
451
453
454
452
447
444
439
439
439
439
441
442
443
445
443
448
447
450
449
449
449
450
449
448
450
451
449
449
449
450
452
459
468
475
481
487
493
498
501
506
507
509
509
509
507
504
501
499
497
496
491
488
485
482
479
480
476
473
472
472
471
473
478
482
484
486
488
490
487
484
484
483
480
476
475
476
476
478
475
477
478
477
477
476
473
472
470
469
469
470
468
468
464
464
464
470
475
478
478
476
474
474
473
475
475
473
471
471
470
466
467
471
477
477
482
490
495
502
507
511
517
525
530
536
539
539
538
542
541
538
531
525
521
517
513
510
506
504
501
499
498
495
495
500
504
509
512
515
518
520
521
522
522
520
518
516
512
509
507
509
510
510
509
508
506
503
501
500
500
499
500
499
499
498
495
491
490
491
492
496
498
496
496
497
497
495
494
495
495
493
493
497
500
502
503
508
516
525
533
545
556
568
576
585
590
591
590
591
592
590
587
581
572
564
559
556
552
547
544
541
538
535
534
537
539
540
541
544
548
550
550
551
553
556
557
558
556
553
550
549
548
545
541
536
533
530
526
525
523
520
518
517
517
514
510
511
514
515
517
517
517
518
516
516
515
513
511
509
507
507
507
510
513
517
522
526
532
541
551
566
580
592
606
618
627
633
635
637
636
631
622
611
600
586
575
567
561
554
548
543
539
536
535
537
539
541
545
550
554
557
560
564
564
564
561
562
560
556
552
550
546
542
538
533
528
522
516
515
515
513
511
512
510
509
510
511
514
516
517
517
517
513
510
511
513
515
516
517
516
514
511
513
517
523
530
539
549
560
572
587
603
618
631
640
646
648
645
642
636
627
615
603
589
576
564
555
546
538
531
529
529
529
529
534
538
543
544
548
553
555
557
559
558
557
558
557
555
552
547
544
540
535
530
525
521
515
509
506
504
504
504
504
504
505
503
508
512
515
517
517
516
514
511
510
506
504
505
507
507
509
510
515
524
536
551
567
585
599
615
628
641
653
659
659
654
647
640
631
619
607
594
580
565
551
540
534
530
527
526
526
526
526
529
535
541
546
553
557
558
558
559
559
556
552
548
541
534
527
521
518
516
515
510
503
499
495
495
496
497
498
498
497
499
499
498
500
502
504
502
501
501
502
501
502
502
500
497
498
502
509
519
535
552
569
588
610
627
643
653
662
665
666
663
652
639
626
613
600
586
573
560
548
537
527
520
515
514
517
522
526
530
533
539
546
553
558
561
562
559
555
550
545
541
536
530
523
516
510
504
502
497
495
493
494
494
494
494
493
493
494
497
498
499
500
500
500
501
502
502
502
499
497
496
494
493
494
498
507
518
532
551
572
595
619
641
659
672
677
680
677
671
662
649
631
613
596
581
569
559
548
538
530
523
517
515
519
522
526
532
538
544
547
551
555
556
557
556
554
549
542
535
530
523
518
512
506
499
493
489
489
489
489
489
489
488
488
488
490
491
490
489
491
491
490
489
492
495
497
498
498
497
495
492
493
495
499
507
520
538
559
583
612
638
659
675
686
690
690
684
673
659
645
628
609
591
574
556
543
533
526
519
513
511
508
508
512
520
529
537
543
547
550
552
553
553
552
547
543
537
529
520
511
504
494
486
480
477
477
478
480
480
483
484
485
487
487
488
489
489
490
488
487
489
489
489
492
493
494
492
489
485
482
482
486
495
510
528
552
578
605
630
656
678
694
702
703
698
687
676
663
645
629
612
597
584
571
563
561
560
560
562
565
569
571
573
577
579
578
576
574
568
560
553
547
541
533
526
518
509
502
496
491
487
486
483
481
480
481
483
488
492
495
496
498
497
496
495
492
491
491
491
490
489
485
480
482
484
484
485
487
492
499
510
529
554
581
610
639
666
686
700
710
714
714
705
693
677
658
640
623
604
586
571
559
549
538
531
529
529
530
531
534
539
543
547
552
556
560
563
563
559
553
547
544
539
533
527
521
514
507
502
495
492
490
488
489
490
490
491
495
497
498
501
503
505
505
504
505
504
502
500
496
495
493
490
491
494
500
507
520
537
559
586
616
646
677
705
726
742
748
751
747
739
724
704
684
665
645
625
605
589
573
560
547
538
528
521
520
523
523
524
529
536
544
548
550
550
554
553
551
544
536
526
519
510
501
493
488
481
477
475
475
476
477
478
479
479
480
479
482
485
486
486
486
486
484
479
477
478
477
478
477
476
473
470
471
474
471
474
483
499
519
549
584
618
652
681
704
721
725
723
721
713
698
677
657
638
616
595
574
556
538
524
511
500
489
483
484
486
488
493
497
503
502
506
511
514
513
512
508
505
498
490
486
483
478
473
469
465
462
457
457
457
454
458
459
461
462
463
465
467
469
467
466
464
463
464
466
468
466
466
466
465
462
463
466
467
467
467
468
467
467
467
473
486
503
525
554
587
619
651
678
697
709
717
716
710
693
676
654
633
614
598
583
568
552
537
523
513
503
496
489
486
482
482
486
491
494
499
503
507
507
507
505
504
500
493
487
481
474
467
463
460
455
448
444
447
450
450
454
458
460
462
465
463
463
464
464
461
461
463
465
463
462
462
463
463
462
462
462
462
462
459
456
455
453
450
448
449
449
451
457
467
481
498
522
550
579
610
640
661
680
694
700
698
690
675
659
639
619
599
580
562
546
532
521
510
497
485
479
476
475
472
478
483
488
491
495
498
500
500
501
498
497
491
484
479
473
467
465
462
459
455
453
450
447
445
444
442
441
440
439
439
443
443
445
449
453
454
454
453
452
451
453
453
454
453
451
450
448
443
441
442
446
446
444
443
440
438
439
438
439
440
443
449
457
469
489
512
542
576
610
637
661
677
688
689
683
671
656
635
610
589
574
559
546
531
521
510
498
488
480
473
470
474
478
481
482
482
486
492
497
499
499
498
497
492
489
486
482
477
473
467
459
453
451
450
449
449
449
448
445
444
445
446
447
448
447
448
447
446
448
450
452
453
456
457
458
458
459
459
456
452
449
447
444
443
445
446
447
446
447
445
442
439
439
441
444
449
458
470
486
503
528
561
591
618
642
660
671
674
670
660
649
633
615
596
578
561
546
533
519
509
501
497
492
489
488
488
490
491
495
499
505
511
520
525
528
527
527
523
514
506
501
493
486
478
470
464
459
456
454
454
454
455
456
455
456
458
458
460
459
460
461
461
459
461
463
464
465
465
467
466
463
459
458
455
453
451
448
447
445
442
443
444
445
448
452
456
466
480
501
527
559
593
626
658
681
698
708
710
703
689
671
650
625
599
575
554
535
518
504
493
485
479
478
478
479
481
485
490
492
496
504
510
515
517
519
519
516
512
510
505
499
492
485
477
471
468
464
462
458
455
453
452
450
450
452
455
458
461
460
461
460
459
460
462
463
463
464
462
458
456
458
460
462
462
460
456
453
454
454
453
451
449
448
447
446
447
449
453
458
466
478
493
513
539
572
605
638
668
694
709
715
715
710
697
679
656
631
606
580
554
535
519
506
494
484
478
476
477
481
482
485
488
495
502
507
512
515
519
520
519
517
510
502
494
491
488
483
477
469
463
458
455
456
455
454
453
456
458
458
459
461
462
463
465
467
467
465
465
468
467
466
464
465
465
461
458
461
463
465
464
463
460
457
456
455
454
451
448
447
447
448
455
472
492
514
541
571
604
632
660
683
699
706
705
697
681
660
636
617
596
575
554
534
517
501
487
477
470
468
470
474
479
481
485
493
502
508
512
516
518
519
519
519
516
511
506
497
488
479
472
469
466
462
457
452
449
447
446
446
447
447
448
451
453
455
455
458
459
460
458
457
458
459
458
458
460
458
457
459
459
457
454
456
457
455
454
454
452
450
450
453
456
463
476
495
513
539
570
607
642
669
693
711
719
716
709
698
679
655
629
605
580
557
538
522
508
497
491
487
484
482
481
485
489
493
499
503
505
510
512
518
520
522
520
519
517
515
509
502
496
491
483
475
466
457
452
454
456
456
451
450
450
452
453
454
455
457
460
461
462
462
461
462
464
464
464
463
462
459
458
458
456
455
452
448
443
437
438
440
439
442
447
454
462
473
490
512
540
573
609
643
675
700
715
724
724
717
704
683
661
634
607
583
559
537
519
503
494
486
481
481
481
484
486
492
497
503
508
516
523
528
532
532
530
526
519
514
508
502
496
486
476
468
462
459
456
454
452
450
448
448
449
451
456
459
459
458
456
455
457
458
460
460
462
462
465
468
470
473
476
475
475
471
470
466
463
461
458
455
454
451
451
451
458
471
491
516
545
579
615
647
679
708
729
740
744
736
723
704
681
654
624
597
574
552
533
516
502
487
480
478
474
476
483
490
499
510
520
525
530
536
542
540
538
538
535
529
522
514
510
503
492
485
481
477
472
469
468
465
462
461
459
459
459
460
461
461
460
465
474
479
480
480
476
474
474
476
475
474
474
474
472
469
467
466
463
458
455
455
457
452
450
458
472
494
521
554
589
624
657
692
721
742
748
749
740
726
705
682
655
626
597
574
550
528
510
496
485
479
473
472
476
481
488
501
511
521
527
534
540
541
542
547
544
538
529
521
512
502
491
481
473
468
465
461
460
457
456
459
461
464
468
470
471
469
468
467
467
470
470
470
469
468
465
469
473
474
472
471
467
465
462
462
464
463
463
465
467
474
479
498
523
557
591
627
660
685
706
721
727
728
718
703
682
656
630
605
578
555
536
517
503
491
481
476
473
476
480
485
490
496
504
515
523
528
532
536
535
533
527
521
515
509
503
495
488
480
472
469
465
461
457
456
455
456
457
459
460
461
462
463
463
464
462
463
466
469
470
469
469
468
467
469
468
467
466
462
459
458
455
456
456
459
463
468
480
495
516
546
580
615
647
677
703
721
732
736
731
717
698
673
650
621
593
569
548
527
511
497
488
480
474
477
481
486
493
499
505
510
518
527
533
536
537
534
531
525
517
511
503
494
486
480
473
467
464
463
461
459
457
456
457
457
455
459
463
465
467
468
467
466
466
470
471
473
474
473
473
473
472
472
471
470
467
465
461
458
457
457
456
456
462
473
486
504
525
560
596
631
663
691
712
723
727
725
714
697
675
650
625
599
574
551
530
515
503
494
486
480
476
477
480
484
489
495
502
509
515
525
531
535
534
532
528
521
513
506
498
490
481
473
468
461
457
457
456
455
455
455
454
453
451
452
454
456
456
455
457
457
458
463
466
469
471
473
473
471
468
464
461
459
457
455
453
450
447
449
454
458
464
476
495
520
549
585
620
653
683
704
717
721
716
706
688
667
643
619
595
570
546
525
509
495
486
480
474
471
474
480
483
489
496
504
510
515
519
523
523
522
521
519
515
508
500
495
487
481
475
468
461
455
449
447
445
444
442
441
439
439
439
443
444
445
445
446
446
445
444
447
450
452
451
452
453
452
451
453
451
450
449
448
446
444
442
443
446
453
464
481
503
526
560
599
639
672
698
713
722
723
717
705
686
664
640
613
588
565
544
528
516
506
499
494
489
484
482
485
490
493
498
502
508
514
518
521
523
524
521
515
511
504
495
488
481
470
463
459
456
452
449
449
448
448
448
448
448
446
446
450
453
454
455
457
460
458
457
461
462
462
463
462
461
457
455
454
453
452
450
449
447
446
447
451
455
460
466
479
498
520
546
577
610
638
663
681
690
694
690
683
668
650
629
608
587
564
546
531
520
511
503
497
492
488
485
490
494
501
505
509
513
516
521
525
528
526
522
520
515
509
502
496
491
483
474
468
464
460
456
457
459
457
457
457
460
459
459
461
464
464
464
468
470
471
471
472
471
468
466
468
469
467
466
466
465
464
461
457
454
452
451
453
456
461
468
479
499
522
548
582
616
647
674
695
708
712
709
698
680
660
636
614
591
568
544
527
514
502
493
487
482
479
481
486
493
500
506
513
519
523
526
530
532
531
528
526
519
512
504
497
488
477
470
467
464
459
455
454
455
454
456
458
459
458
458
460
461
462
465
464
464
464
464
468
471
472
469
467
466
466
464
464
463
459
456
453
454
452
451
450
453
460
472
488
507
532
563
597
631
660
685
702
712
716
713
706
690
669
645
618
593
569
551
536
524
514
507
503
500
498
497
500
503
507
511
513
517
521
523
528
531
531
528
525
519
512
506
502
497
491
483
476
469
466
463
461
459
458
457
455
453
453
453
459
463
465
467
468
468
467
466
467
467
467
467
465
463
460
459
460
460
459
457
456
452
448
445
446
447
450
455
463
474
488
509
537
570
604
636
666
691
708
717
721
716
704
686
664
641
616
592
574
556
540
523
510
503
496
491
490
493
496
497
500
504
511
517
526
533
536
538
537
536
530
523
518
511
502
495
487
477
469
465
461
458
457
457
456
454
453
453
453
452
453
456
461
464
466
466
468
471
472
470
470
467
464
463
461
459
459
459
456
453
450
448
449
449
449
450
452
460
472
487
510
534
564
597
631
662
687
706
719
723
718
707
692
672
647
620
592
567
546
525
508
498
488
479
480
481
481
485
491
498
503
511
520
527
534
537
540
537
533
527
524
519
512
500
490
481
474
467
465
462
459
456
456
455
453
452
456
460
462
463
464
464
464
466
469
469
468
466
466
465
463
463
463
462
461
461
460
457
456
453
454
455
458
464
474
488
504
524
556
589
621
650
674
693
704
708
706
695
679
660
636
611
587
566
547
530
514
499
487
479
474
472
474
481
487
494
500
504
510
516
525
533
537
538
535
532
525
516
506
497
488
478
470
463
458
453
451
451
450
450
450
451
450
453
458
461
460
460
461
461
462
462
464
465
466
466
465
465
462
459
459
457
458
457
455
455
455
453
453
453
451
452
456
463
477
495
517
548
582
615
649
680
705
722
736
743
740
726
708
683
655
629
602
579
558
539
525
514
505
499
498
498
499
500
503
509
513
520
527
531
535
538
540
539
537
532
528
523
515
506
495
484
472
464
462
460
457
455
453
453
453
454
457
460
461
461
461
460
459
460
463
464
465
467
470
469
468
466
468
469
469
465
463
461
461
458
456
455
453
451
450
450
453
458
469
484
502
524
554
588
620
652
684
710
728
736
739
733
720
700
679
655
630
605
581
560
540
522
510
501
495
491
491
491
491
493
499
506
513
520
526
526
527
525
525
523
518
514
507
501
493
487
481
474
470
467
465
461
454
451
452
453
453
453
453
456
457
458
461
464
467
470
470
469
469
468
470
468
464
463
462
464
463
460
462
462
460
455
453
449
443
440
442
444
446
450
459
473
489
510
537
573
609
644
676
705
724
732
736
731
722
705
683
658
629
602
582
562
543
523
508
498
490
485
485
486
489
494
499
503
510
517
526
533
538
541
538
536
532
523
517
510
500
491
483
473
465
457
456
455
453
451
453
453
454
453
455
456
458
459
463
465
467
464
465
467
469
471
471
471
470
469
469
470
467
466
465
461
457
454
455
457
464
472
482
493
510
532
563
595
631
663
689
708
720
723
719
707
688
665
643
619
593
570
549
531
514
502
490
483
481
480
482
486
494
503
511
517
523
527
532
536
537
536
529
523
516
507
500
490
482
471
464
457
454
449
449
449
451
452
454
455
456
456
461
463
466
464
464
466
468
468
468
469
470
469
470
465
463
462
461
460
458
457
456
459
463
471
488
510
537
572
608
646
678
707
731
743
746
742
734
720
696
672
649
624
600
579
563
547
533
521
510
505
502
500
499
500
497
500
507
512
516
521
527
531
530
526
525
524
520
514
506
496
490
481
475
466
460
458
457
455
452
452
454
456
457
458
458
459
455
454
456
458
461
461
464
464
465
467
469
471
469
467
462
456
454
448
445
449
455
457
462
472
489
511
545
587
632
681
728
768
796
818
829
829
822
808
786
762
732
702
673
647
621
597
578
559
542
530
522
515
512
511
514
519
526
532
541
550
556
559
558
555
551
544
536
527
517
506
493
482
472
463
460
460
458
456
457
457
457
457
459
460
460
462
465
467
468
467
472
475
477
479
479
477
477
476
477
476
472
469
465
462
457
454
456
456
459
464
471
485
505
533
570
612
657
699
739
772
795
806
811
806
789
766
740
710
676
643
612
583
557
533
515
499
484
475
475
480
486
493
500
509
518
526
534
539
543
544
544
541
536
531
523
511
500
488
475
466
459
454
449
446
443
443
444
445
445
445
451
456
460
465
468
470
471
471
473
474
475
475
472
471
468
465
464
460
455
455
458
463
472
488
515
549
587
632
676
716
748
774
792
799
797
784
764
739
710
678
647
618
589
562
539
519
501
483
476
472
469
471
473
479
484
490
497
502
507
513
515
516
515
512
510
505
499
491
481
471
463
454
447
440
435
433
431
428
426
429
433
435
438
443
444
446
448
449
453
456
458
458
457
459
459
458
458
458
456
454
452
449
445
442
442
444
445
450
462
482
507
539
583
629
675
718
752
778
793
795
792
777
756
727
695
664
631
600
574
553
532
513
499
485
473
465
463
465
469
474
479
483
488
495
502
507
508
507
505
502
496
488
481
474
466
458
449
439
430
422
419
415
413
412
410
409
407
407
411
413
415
417
420
420
420
421
424
427
430
433
435
435
435
435
435
437
437
436
434
430
424
420
421
422
426
432
443
459
480
505
539
576
619
657
689
714
729
736
737
732
715
694
667
639
610
580
553
527
506
488
474
464
458
454
456
459
464
470
478
487
494
498
502
505
508
511
511
509
505
500
496
488
478
469
462
456
448
439
438
435
433
429
426
425
425
424
428
432
438
442
444
446
447
449
450
450
448
447
445
445
445
445
446
446
446
442
438
438
440
447
459
474
493
516
547
578
607
636
664
685
697
700
696
685
667
645
621
593
567
540
513
489
468
454
447
440
438
438
441
446
455
464
477
492
506
517
527
533
536
534
532
528
521
511
503
492
479
469
462
453
445
437
432
427
425
424
427
433
436
441
444
447
450
453
459
464
464
465
466
467
464
460
460
457
457
457
462
471
483
499
522
549
580
609
638
663
681
694
702
704
697
683
663
639
609
578
551
524
494
468
449
434
423
417
417
421
427
438
449
463
477
491
504
516
525
530
533
534
528
521
515
508
499
486
475
462
453
445
438
434
433
435
436
437
436
436
441
445
447
448
449
451
452
453
456
458
460
463
466
474
481
491
510
529
556
586
616
643
668
686
700
708
709
702
688
669
647
619
595
570
542
517
493
470
451
436
431
429
432
436
443
452
463
474
485
496
505
513
519
523
522
520
518
513
508
499
491
482
470
461
455
450
445
440
438
437
436
433
432
433
434
435
436
437
440
441
443
446
447
450
451
453
454
454
457
464
470
480
496
519
548
584
627
671
711
744
770
786
792
787
777
758
731
701
670
639
608
577
554
532
513
495
481
471
466
463
461
461
462
467
474
477
486
493
499
502
504
506
503
502
497
492
486
480
474
466
459
451
443
440
436
435
433
431
428
428
425
424
427
434
436
438
440
441
445
447
451
453
457
455
453
449
443
437
436
433
432
432
436
440
449
465
489
518
551
591
630
667
696
718
732
736
731
719
697
676
650
622
596
574
552
529
509
490
475
460
454
449
445
443
444
444
444
446
453
459
464
470
473
477
477
479
478
476
471
465
460
454
447
440
436
434
429
425
423
422
418
414
413
415
416
416
419
421
424
423
422
426
429
427
430
427
424
422
423
419
422
426
426
425
424
422
421
419
418
417
418
419
421
428
440
453
470
496
524
554
584
612
640
659
669
672
666
656
636
617
595
573
552
533
515
497
481
467
464
462
458
456
453
451
451
455
457
460
463
462
461
460
463
468
471
470
465
459
455
452
448
443
439
438
437
433
429
425
421
419
421
424
423
422
421
420
419
420
422
425
426
425
423
421
419
417
417
418
418
418
419
418
417
417
418
420
423
423
420
418
414
415
420
426
430
433
443
457
471
491
512
536
563
581
594
603
607
606
599
592
580
565
550
533
513
497
485
473
465
461
458
455
453
450
452
455
458
459
462
465
467
470
476
477
478
475
473
469
464
457
456
455
451
446
442
439
437
436
437
436
433
431
430
428
424
420
420
423
424
427
431
434
436
437
441
442
441
440
441
441
442
442
441
440
438
438
438
437
437
436
435
434
434
434
434
437
442
447
458
470
486
502
520
540
557
571
583
592
595
594
588
576
565
553
542
528
516
505
493
485
476
470
469
470
468
467
466
469
471
473
478
484
488
491
496
498
498
495
495
495
491
486
482
476
470
465
463
461
459
457
455
455
454
453
452
450
448
448
448
450
452
452
455
458
458
458
459
459
458
456
455
455
453
451
451
449
448
448
450
454
456
460
464
471
479
490
503
519
536
555
571
582
588
591
594
595
594
590
580
569
556
545
533
523
516
508
500
493
488
486
486
487
490
492
496
500
502
506
512
516
520
523
526
526
522
516
513
509
504
500
495
490
485
482
481
478
477
474
472
472
471
474
477
479
479
478
478
478
477
477
478
477
478
478
478
479
479
478
480
480
480
480
480
481
482
484
492
502
515
529
549
569
585
599
612
621
627
628
626
619
608
597
586
573
558
544
532
522
513
505
501
497
496
495
498
502
506
509
513
518
522
525
530
534
535
534
532
528
523
517
512
505
498
494
491
487
483
482
478
478
476
477
482
484
485
485
483
481
479
480
480
481
481
482
484
485
486
485
484
484
484
485
485
485
485
489
498
510
524
542
560
578
594
611
627
636
639
638
634
628
617
602
588
573
562
551
537
527
516
507
504
501
499
498
499
502
506
510
515
522
528
533
538
542
542
542
542
538
534
528
521
516
510
503
498
492
486
482
480
479
478
477
480
482
485
488
489
488
485
485
486
488
488
488
487
488
487
486
488
490
493
495
499
503
508
517
531
550
569
589
609
624
636
644
650
651
649
643
635
622
605
587
572
558
545
534
524
514
507
502
502
505
510
515
518
521
523
526
531
534
537
541
540
536
532
528
526
525
519
513
508
502
496
490
485
482
480
479
480
477
475
473
475
478
480
483
485
485
484
484
484
485
488
490
489
485
483
482
485
485
487
494
503
519
538
558
580
601
623
644
660
668
671
670
668
662
651
638
624
609
594
579
566
554
543
533
526
520
517
517
519
521
525
529
530
533
536
541
543
544
543
541
538
536
533
529
523
518
512
508
503
498
491
484
482
480
479
478
477
478
479
481
481
482
484
486
488
487
485
484
485
486
486
485
483
482
479
478
479
482
482
481
479
479
481
488
500
516
535
560
589
622
650
677
705
727
741
746
744
737
728
712
697
677
659
643
628
613
598
588
580
571
563
557
552
547
543
541
542
541
543
546
550
551
550
549
550
549
547
544
540
533
524
515
510
504
498
493
489
487
484
479
481
481
482
482
482
479
479
480
480
481
481
480
479
479
478
475
474
471
471
472
470
468
468
467
467
466
464
462
459
459
456
456
460
462
467
477
493
516
542
574
611
647
682
709
731
744
751
751
748
739
723
705
685
664
644
623
608
594
581
568
555
543
532
524
520
517
518
518
518
520
520
522
527
532
532
532
531
527
523
517
513
506
501
496
488
479
473
467
466
461
457
455
454
451
450
450
453
458
462
467
471
473
473
471
470
469
467
466
465
463
460
457
460
462
463
463
461
459
458
455
453
454
451
450
450
449
446
445
449
456
464
477
493
516
545
579
617
656
691
718
739
751
754
750
740
724
703
679
657
634
610
589
572
557
543
531
520
511
502
497
499
503
507
509
512
518
522
526
530
528
526
526
525
522
518
512
508
501
494
487
481
474
467
464
461
457
456
455
454
453
451
452
457
460
461
461
463
465
465
464
465
465
464
464
463
461
459
457
457
456
455
454
452
450
447
444
443
444
443
442
440
441
443
443
445
445
445
448
453
463
474
492
516
546
583
620
657
690
716
734
746
748
743
729
709
687
661
637
613
591
568
549
534
520
504
493
492
492
493
493
495
499
505
512
521
527
533
536
537
536
533
531
528
523
514
504
497
490
480
470
465
459
455
453
450
447
444
442
443
443
443
442
443
443
444
445
444
445
445
446
448
448
448
448
450
452
454
455
455
455
453
451
451
449
448
446
444
442
437
435
436
438
440
443
447
450
454
464
480
500
527
560
596
633
668
698
724
741
751
751
742
726
703
678
656
631
605
580
555
535
516
498
487
479
474
472
472
474
478
484
490
500
509
517
526
533
537
539
540
534
529
522
514
506
494
483
475
467
461
455
449
446
443
439
440
439
438
441
443
442
442
442
447
449
451
452
453
454
456
458
460
461
461
461
459
459
457
455
455
454
452
451
450
448
445
443
443
443
442
440
441
445
450
459
474
493
515
541
573
609
644
676
707
731
746
752
747
736
718
694
668
640
610
579
552
527
504
484
473
466
463
461
461
463
469
478
488
496
508
517
524
529
534
538
540
539
535
527
517
509
495
485
477
470
463
457
453
450
448
446
447
448
449
452
454
455
456
456
459
460
459
460
461
462
463
464
466
468
468
467
467
467
464
459
457
456
454
453
452
454
451
450
453
456
458
460
463
470
477
493
514
538
567
599
630
659
683
703
718
726
725
719
705
684
659
635
609
583
559
535
515
496
482
470
467
468
472
478
486
496
504
512
522
531
539
546
550
552
550
546
542
536
529
521
511
501
490
478
471
466
461
459
458
456
453
452
454
454
456
458
459
460
462
465
469
471
472
475
477
476
472
470
471
471
470
468
467
468
465
463
462
460
460
462
467
476
488
504
527
556
587
619
648
672
692
707
717
719
711
699
685
666
643
619
595
571
548
526
507
493
481
472
470
471
475
480
487
497
504
512
525
538
547
554
556
556
552
546
540
530
520
509
499
490
480
471
469
467
464
461
459
457
456
453
455
457
457
458
462
465
468
467
472
476
479
480
479
478
475
473
472
471
470
472
479
488
500
515
539
567
594
621
648
672
692
704
710
709
703
690
671
651
629
605
583
561
543
525
509
496
485
477
474
474
474
479
488
494
501
510
523
533
540
545
548
547
541
534
529
523
514
504
494
482
473
467
465
463
461
456
455
453
452
452
451
453
457
461
464
466
466
467
471
472
473
474
474
473
471
471
473
478
485
496
512
534
558
589
626
662
693
718
736
748
750
744
735
719
698
675
649
623
596
575
557
542
527
515
505
495
487
484
486
489
491
495
500
505
511
517
524
528
529
530
528
523
517
508
500
490
481
472
464
459
453
447
445
445
447
447
447
449
450
451
455
457
458
460
462
463
464
464
467
467
469
470
467
466
464
462
460
460
461
463
468
479
496
516
545
580
622
664
706
742
769
789
801
803
796
783
763
738
711
684
661
637
614
591
574
555
538
524
512
501
493
487
484
483
483
484
490
498
504
509
512
517
518
517
515
510
501
492
486
478
469
462
461
458
455
453
451
450
445
444
445
446
447
450
452
454
454
455
460
462
462
460
459
459
458
456
456
458
457
458
457
456
451
447
446
446
447
447
449
452
459
469
488
509
537
575
615
656
694
726
754
772
781
780
771
755
734
707
683
658
632
607
585
566
549
534
523
513
503
495
489
482
477
478
479
481
483
489
495
502
504
505
506
502
499
495
489
481
472
462
458
454
450
445
442
439
435
432
432
434
436
439
440
440
442
443
446
447
449
450
450
450
449
447
447
448
449
450
451
450
446
443
442
442
441
440
441
440
438
438
441
441
440
441
444
450
459
474
497
525
558
594
631
665
695
719
736
745
745
737
725
707
685
661
636
614
591
572
554
537
522
507
499
491
484
479
477
476
478
482
487
491
494
501
505
508
507
507
506
504
499
493
487
479
470
464
459
454
448
445
440
437
436
435
438
439
439
437
439
441
441
442
444
444
446
448
449
449
448
447
449
450
450
449
447
448
447
446
445
444
444
442
442
443
442
441
443
444
444
443
444
444
445
449
460
471
489
513
543
579
615
650
682
708
725
734
735
727
712
691
669
646
621
596
574
554
535
519
509
499
492
485
480
477
476
476
480
484
489
493
498
501
502
504
508
510
507
504
500
494
486
479
473
465
460
455
451
447
442
439
439
437
439
440
440
442
442
440
441
442
445
448
450
449
448
449
452
453
453
453
453
451
449
447
447
445
443
441
439
438
434
432
436
440
440
436
438
438
436
435
437
440
444
453
464
482
506
534
571
607
642
672
696
712
719
718
710
696
677
655
629
605
580
556
539
523
509
496
487
480
474
471
473
476
480
483
488
494
498
503
507
510
513
516
515
509
502
494
490
485
478
472
467
459
453
447
447
445
444
442
441
439
439
438
440
440
438
440
442
444
443
445
449
451
454
455
456
456
455
453
453
453
452
451
449
448
446
445
445
445
444
441
441
440
438
436
436
435
437
439
445
455
468
488
514
547
584
619
653
681
703
716
723
722
712
696
676
652
624
596
574
551
530
511
494
481
470
465
464
465
468
472
478
483
490
496
503
511
516
519
520
521
518
515
512
506
498
491
485
479
472
465
460
454
448
445
443
442
440
438
438
439
440
439
442
442
440
440
443
446
450
451
454
454
454
454
454
453
455
455
454
454
452
451
452
451
450
449
448
445
441
437
437
438
438
442
450
460
474
492
517
547
578
610
641
669
693
710
721
724
719
708
688
665
640
614
591
567
543
522
506
491
477
468
466
465
466
469
475
484
491
499
510
519
526
533
538
539
536
530
524
516
509
502
493
485
477
467
464
462
459
457
454
451
447
445
445
446
444
445
447
449
450
452
454
456
457
461
464
464
464
464
464
463
462
463
463
461
459
455
456
456
455
452
448
445
444
444
447
455
467
485
508
536
569
603
637
669
696
716
729
735
732
723
708
690
666
641
616
591
566
541
525
510
497
488
481
475
473
474
478
483
492
502
511
519
526
532
537
541
541
539
536
530
521
510
502
493
482
471
465
459
455
453
452
449
448
446
447
448
448
448
449
451
454
457
460
461
460
459
463
465
467
468
465
464
461
460
459
459
460
459
457
458
458
463
475
490
509
533
564
595
627
654
682
704
719
727
728
719
705
686
668
649
628
604
582
561
540
520
506
495
487
481
476
476
477
483
493
502
511
519
527
532
536
537
537
535
532
527
521
514
505
494
487
479
471
465
459
453
449
446
445
445
446
447
448
448
447
448
454
460
466
472
475
476
474
473
474
474
473
472
470
467
465
465
471
481
493
512
535
564
593
624
656
685
706
721
730
733
729
719
703
684
662
638
613
589
566
548
532
517
506
496
490
486
484
483
486
493
501
510
519
529
538
542
546
548
546
542
535
528
518
508
500
490
482
474
469
464
458
456
455
453
454
454
456
457
459
462
465
467
467
467
469
470
470
469
472
473
473
472
472
473
477
484
499
517
539
568
599
634
665
694
719
736
746
747
742
731
714
693
673
649
625
601
578
556
535
516
502
492
484
479
478
477
479
483
491
502
513
525
534
539
538
536
536
533
528
523
516
508
498
489
482
476
467
461
455
452
451
448
447
449
452
452
456
458
459
461
466
469
471
471
470
468
466
464
464
463
463
462
466
475
487
503
525
553
584
615
645
671
693
709
718
720
715
704
687
667
646
623
602
581
561
541
522
506
488
474
468
468
470
473
476
481
484
489
498
507
513
518
521
521
521
521
520
516
510
502
493
483
473
464
458
454
449
445
444
441
439
438
441
443
445
447
449
454
455
456
459
461
462
462
462
462
460
459
459
458
456
457
459
466
476
493
515
543
575
609
642
673
699
718
732
737
736
726
710
689
666
641
617
597
578
561
543
526
510
498
489
483
479
477
476
477
477
479
483
489
496
504
510
513
512
509
506
502
500
493
487
479
471
465
461
456
450
444
442
440
438
436
435
437
438
439
440
441
442
442
447
450
453
454
455
454
451
448
448
448
449
450
451
452
452
451
452
452
450
448
447
445
443
443
446
450
458
473
495
522
553
591
631
668
702
727
748
757
759
752
740
723
702
675
653
630
607
587
572
558
544
532
521
510
500
491
486
483
481
480
481
483
486
488
494
499
501
501
502
499
497
493
489
484
477
472
464
457
452
446
445
444
442
443
443
443
441
441
444
446
448
450
450
451
451
451
453
454
453
453
453
453
452
451
450
448
446
445
444
444
444
444
446
448
447
446
444
443
441
438
440
442
447
460
477
500
524
552
590
629
666
698
724
744
753
754
751
739
723
703
677
654
630
608
588
571
556
542
529
518
507
497
492
487
485
484
483
485
486
489
495
500
503
505
505
504
500
494
491
488
481
477
473
468
462
457
453
449
446
444
443
442
440
437
437
436
436
440
442
443
443
443
449
453
455
457
457
457
454
452
451
450
449
448
447
446
444
441
441
442
442
444
445
445
445
443
442
442
442
441
440
440
445
453
467
483
503
530
563
598
633
669
701
725
743
754
754
746
733
715
695
670
644
619
596
574
555
537
524
513
505
497
492
487
485
485
489
493
497
502
506
509
512
514
516
516
514
510
505
499
491
481
476
470
467
463
456
452
448
444
442
442
444
444
445
444
443
443
447
451
450
450
451
452
452
454
457
458
458
459
459
460
459
459
462
461
459
456
455
453
451
449
450
450
448
447
447
447
445
441
442
441
443
446
450
454
463
479
501
528
562
599
637
672
700
722
741
752
755
750
736
717
690
661
636
610
584
561
543
523
505
492
483
478
476
475
476
480
480
485
493
501
508
515
520
524
525
525
525
521
516
508
500
491
480
468
464
459
453
449
446
445
443
442
443
443
441
442
443
446
447
450
451
452
454
453
454
455
454
455
457
457
457
458
459
458
454
453
451
451
451
452
452
452
449
446
448
448
447
447
444
442
441
442
445
449
461
477
500
527
561
598
639
677
709
734
751
759
755
741
722
698
670
642
611
581
553
526
506
489
475
466
461
459
457
459
464
469
477
482
486
492
497
502
507
509
511
511
511
510
505
501
496
489
481
474
468
462
455
450
448
447
445
442
440
438
438
437
438
440
439
440
442
443
443
444
446
449
451
451
453
453
453
452
454
453
452
450
449
448
447
446
449
450
449
449
448
446
442
439
438
438
441
448
456
470
486
507
536
571
608
644
679
707
727
738
745
741
729
711
688
660
630
599
572
546
523
501
482
467
458
450
447
448
450
455
464
470
479
488
499
509
516
521
523
525
523
521
517
513
508
500
491
480
468
460
454
450
447
445
442
439
438
436
437
437
437
441
441
440
439
440
443
446
448
451
454
456
457
456
455
453
452
450
449
448
447
445
447
448
450
451
452
452
451
451
455
463
469
480
497
517
542
571
605
637
668
693
713
720
721
716
705
689
666
641
614
587
561
535
514
497
483
470
459
453
449
449
453
457
464
474
486
497
505
512
520
525
530
532
533
531
527
521
511
502
493
484
473
464
459
454
453
449
444
440
439
439
440
437
440
442
445
447
449
450
450
452
457
461
462
462
460
461
461
459
460
461
462
461
460
460
458
459
464
472
484
498
520
548
579
610
641
671
697
714
725
730
727
716
703
683
660
632
604
578
553
528
508
491
476
465
457
455
455
458
464
474
483
492
504
515
525
533
541
545
547
545
542
535
527
517
507
496
484
473
463
457
450
444
441
438
437
437
439
441
443
445
450
457
461
463
466
468
469
471
474
475
474
473
471
471
469
469
472
476
481
492
507
528
555
586
620
652
679
703
720
729
730
722
713
697
677
654
627
601
573
548
525
509
494
480
470
464
461
461
466
473
480
488
498
506
513
522
530
538
540
541
538
533
526
517
509
500
490
480
469
462
454
447
442
438
437
435
434
433
435
437
443
448
452
457
461
462
462
461
459
461
462
462
463
462
466
473
488
506
527
555
589
622
650
677
702
719
731
735
731
719
702
678
653
628
601
575
550
525
505
487
475
467
464
462
463
464
469
474
485
495
505
512
520
525
529
531
534
533
529
521
512
503
492
481
472
464
459
455
449
444
439
436
436
436
436
438
440
443
444
445
450
456
459
460
462
464
463
463
465
467
471
479
494
514
538
569
604
637
669
698
721
736
744
743
737
723
704
681
656
631
605
578
557
538
520
501
486
474
466
464
464
466
470
478
482
488
496
501
509
517
521
523
523
521
516
509
502
494
483
475
469
463
457
452
450
448
448
445
444
444
444
444
447
451
453
457
458
458
458
457
458
459
461
461
460
458
458
462
469
480
495
518
548
580
613
650
687
718
741
753
757
754
742
725
704
680
653
628
604
582
562
544
530
518
507
497
488
479
473
468
469
471
475
480
482
486
489
493
498
502
504
503
501
496
490
482
475
468
462
456
451
445
438
432
433
434
433
434
436
437
438
438
440
441
441
444
445
445
447
446
450
452
455
457
457
456
454
451
450
448
446
446
445
444
442
441
442
443
446
454
467
484
507
536
575
615
654
692
723
746
761
767
766
757
744
723
703
680
656
632
611
591
573
556
541
527
514
500
493
489
483
481
479
480
480
482
485
490
493
494
496
498
497
496
495
491
486
479
473
466
461
454
449
446
443
440
439
437
436
435
437
437
437
437
439
441
441
441
441
441
440
439
440
441
440
439
441
439
439
438
437
439
438
436
437
435
431
429
430
429
428
428
430
430
431
432
435
440
443
452
470
491
516
547
582
619
653
680
703
718
729
729
721
707
688
666
647
627
605
585
567
552
535
519
508
499
492
484
478
473
470
470
471
473
477
481
483
485
484
483
486
490
488
486
484
483
476
468
464
460
455
448
444
440
436
432
433
433
434
434
435
435
434
432
434
435
438
439
440
440
439
438
440
441
444
444
444
442
439
436
436
437
439
435
433
431
428
426
428
429
430
430
431
434
432
431
431
431
433
434
438
444
452
465
485
511
539
573
607
638
664
682
694
699
698
690
677
662
641
619
600
580
561
546
531
518
506
493
485
480
476
475
475
475
476
477
481
485
490
492
497
501
501
497
495
492
489
485
482
477
470
465
460
454
448
443
440
437
435
435
437
441
440
440
441
445
446
445
450
451
453
452
451
449
446
443
444
442
440
440
439
439
440
439
442
443
444
444
443
441
439
437
437
436
435
435
434
434
435
435
438
441
443
447
453
467
481
502
527
559
590
618
646
669
685
693
697
694
683
668
649
626
600
576
556
537
520
506
495
487
481
476
475
479
479
481
484
489
492
495
502
506
509
511
512
513
513
510
507
503
498
492
485
478
467
461
457
453
449
446
444
442
441
441
446
450
453
456
457
457
456
455
455
454
452
452
451
451
449
450
452
453
453
453
453
452
447
444
444
443
443
444
444
444
444
443
449
459
472
488
509
535
564
593
622
648
668
682
689
689
681
668
655
640
621
599
578
556
535
514
498
485
473
466
462
461
460
462
471
480
488
496
504
509
512
514
516
517
515
513
510
505
499
492
487
482
475
469
464
460
456
452
452
450
448
447
448
451
450
451
454
454
456
458
458
460
460
461
462
463
463
463
461
461
460
458
459
460
457
454
454
454
453
456
463
473
486
502
522
547
573
598
624
647
665
678
684
682
673
659
642
624
604
582
561
539
518
500
487
476
466
463
461
464
467
473
481
488
495
503
510
514
519
522
525
529
529
526
521
514
504
494
488
480
473
467
464
459
453
449
448
447
447
448
448
450
450
451
452
456
459
462
464
463
464
464
466
470
471
471
470
465
463
461
461
461
462
466
472
482
494
511
534
562
590
618
643
666
681
690
696
695
690
677
663
645
623
600
578
559
538
519
503
489
476
469
468
471
475
479
489
499
508
517
527
539
546
551
555
553
548
540
534
529
521
512
503
493
483
474
470
468
467
465
464
462
460
457
458
460
461
462
464
467
468
469
473
476
474
476
477
478
476
475
476
477
482
485
495
509
526
549
578
608
635
660
681
695
702
704
703
694
680
663
645
624
601
578
559
541
524
509
496
486
477
472
472
473
477
483
491
502
511
519
532
541
547
550
549
545
538
528
520
511
503
496
487
480
471
465
462
462
461
460
458
458
458
458
459
461
460
460
464
467
469
470
470
472
470
470
470
471
472
477
487
500
517
539
567
596
624
652
681
703
718
725
727
722
709
692
674
653
630
607
585
564
544
526
514
504
497
493
490
488
489
493
499
506
513
520
526
530
533
537
540
541
539
534
527
519
509
499
491
482
478
473
469
466
464
458
457
459
460
460
459
460
462
464
468
470
472
473
475
475
473
472
473
473
471
472
479
487
497
514
537
568
602
637
673
704
729
750
767
776
775
766
749
727
703
678
654
630
606
586
568
551
536
523
515
509
503
501
500
501
503
506
510
516
522
525
529
531
530
526
524
523
519
511
504
497
488
481
474
467
463
462
460
459
458
454
454
454
455
456
455
456
454
453
453
456
457
458
461
464
467
470
473
474
473
474
473
470
466
463
461
459
458
458
464
470
481
498
525
560
599
640
678
715
744
767
785
792
791
780
762
741
715
689
666
641
616
595
578
562
547
533
521
511
503
495
489
487
487
487
492
496
500
503
505
506
505
503
503
501
497
494
490
485
480
473
470
470
468
465
462
458
454
450
449
450
452
453
453
452
450
451
456
457
457
457
458
457
455
454
455
457
456
453
451
449
449
447
449
451
449
448
447
446
444
443
447
449
450
450
450
449
448
451
460
475
495
521
553
589
625
659
691
717
735
744
747
743
731
713
692
669
647
622
595
572
552
534
519
509
499
490
483
477
472
469
474
477
483
488
491
495
497
497
498
497
497
494
490
487
482
476
472
465
460
454
451
449
444
440
439
439
439
438
436
437
439
440
441
445
447
448
447
448
445
444
445
446
446
447
446
445
443
442
446
448
451
452
451
449
446
443
441
438
436
436
434
434
435
436
439
440
439
438
438
440
436
438
444
455
471
491
515
544
576
607
640
670
692
706
711
709
699
684
665
643
621
598
575
555
536
519
506
495
484
475
470
469
468
467
470
473
477
481
486
489
492
493
498
499
497
497
495
492
486
480
476
469
462
457
454
449
446
443
444
444
443
443
444
444
444
445
447
449
448
448
449
450
449
447
450
452
454
453
453
453
451
450
450
449
449
448
445
443
442
443
445
445
445
445
445
444
441
437
439
440
440
440
441
443
446
450
461
475
490
509
535
565
593
619
644
663
674
678
674
665
653
636
618
596
575
556
536
518
501
486
474
465
463
459
458
458
459
462
470
477
486
492
498
504
508
509
512
511
508
504
501
496
490
482
479
477
475
470
464
460
455
451
449
447
447
446
446
444
443
442
445
449
452
452
454
456
456
455
457
456
457
456
454
453
451
451
454
453
452
452
451
450
449
449
450
450
448
446
446
443
442
440
442
446
452
460
468
481
493
513
537
563
586
607
626
638
644
643
641
636
626
612
597
580
559
541
524
507
492
479
470
463
460
458
461
465
471
477
484
488
493
495
500
503
507
511
512
511
506
502
498
496
492
489
486
481
476
471
469
465
462
458
454
453
453
453
455
454
454
457
460
460
460
461
467
473
475
476
476
478
476
474
476
478
478
474
473
472
471
470
472
477
484
492
502
517
536
557
577
598
617
632
641
646
645
639
631
618
605
590
575
559
542
526
515
503
491
481
474
470
468
472
477
483
489
495
500
505
510
514
520
524
522
519
515
511
503
496
486
478
472
464
461
460
457
456
455
454
455
455
456
458
459
460
461
463
464
464
463
461
459
458
461
462
464
465
465
466
467
468
468
467
465
463
463
464
465
469
480
492
507
525
547
572
596
620
643
661
675
683
686
682
673
660
648
633
615
599
583
567
552
536
524
515
507
502
498
496
496
499
503
509
516
521
525
529
531
533
533
534
534
530
524
518
511
505
501
496
492
490
486
482
474
471
472
475
477
477
476
475
476
478
480
483
483
484
485
485
481
479
482
483
484
484
482
481
481
479
480
480
477
471
472
477
485
495
511
527
547
571
598
623
645
663
678
687
689
683
675
662
645
626
610
591
575
561
548
535
525
516
513
509
506
503
501
501
501
504
508
512
517
522
524
528
529
529
533
530
526
521
517
512
507
499
493
483
475
468
464
461
460
458
457
456
456
458
458
456
456
455
455
456
455
454
457
456
457
457
461
463
465
465
466
465
464
461
461
462
460
461
467
478
491
507
530
556
582
605
628
646
658
665
668
662
652
637
618
597
577
558
542
526
510
493
481
471
460
458
459
461
463
465
470
476
482
487
496
502
505
505
507
506
504
497
493
488
483
478
473
468
463
458
457
456
455
454
452
448
448
446
447
448
450
449
450
449
450
449
452
454
454
453
453
452
450
448
449
449
449
448
449
451
451
452
460
469
478
490
506
522
539
557
576
591
600
605
605
601
592
580
570
557
545
532
518
503
487
474
466
461
458
452
449
449
450
454
462
467
473
480
484
486
487
487
488
487
487
484
482
478
474
472
472
469
464
460
456
452
448
445
444
443
443
443
443
441
440
438
439
441
441
441
442
442
441
441
443
444
443
445
446
446
447
451
461
471
479
489
501
512
523
532
545
555
562
566
566
561
552
541
533
526
517
507
496
485
477
469
465
462
458
455
452
450
451
452
457
462
463
465
467
470
470
471
473
474
473
473
469
465
461
455
452
448
444
440
436
434
432
430
429
428
427
427
429
430
429
428
429
432
434
436
436
436
437
438
442
446
452
459
473
488
500
513
532
550
565
577
584
588
586
583
578
571
561
550
538
527
515
504
496
489
485
482
477
474
471
473
477
483
489
494
497
502
503
504
507
510
508
506
505
503
499
495
492
489
486
484
481
478
476
471
471
471
471
470
467
466
464
463
465
466
466
468
470
471
472
475
479
483
487
493
502
511
521
537
559
583
608
632
652
667
678
684
688
687
682
674
664
649
630
614
601
587
575
563
553
545
536
529
527
530
532
532
535
539
543
546
551
555
557
558
557
556
553
550
548
545
540
534
529
523
517
512
507
503
497
493
490
486
483
482
484
485
487
488
488
488
486
487
490
494
496
500
506
515
527
543
567
593
618
640
662
679
694
702
706
706
700
690
677
661
643
625
608
592
577
564
552
540
530
521
517
516
515
514
515
517
520
523
533
539
543
546
548
547
545
544
540
536
533
527
521
515
509
502
498
494
489
486
485
484
481
476
475
476
474
472
471
471
470
470
476
482
489
498
511
526
546
569
594
618
640
659
673
681
682
679
674
663
650
633
613
593
574
555
538
520
506
494
484
479
475
474
476
480
487
493
499
507
513
518
521
524
524
526
525
522
516
509
504
496
491
484
479
475
470
468
468
466
465
465
464
462
462
460
464
467
470
472
474
477
481
488
499
515
534
557
582
607
629
646
660
668
672
670
665
655
638
618
599
581
564
548
532
518
503
489
481
475
473
473
472
472
476
479
485
492
496
502
506
509
510
509
510
509
506
501
497
494
488
483
479
477
475
471
467
464
460
457
460
460
461
460
458
459
457
457
459
461
463
469
478
490
504
522
547
575
602
624
645
663
674
679
678
671
661
646
627
606
585
566
552
537
523
510
499
490
481
473
472
471
475
478
482
486
490
494
498
502
506
506
507
506
502
497
493
489
486
482
479
480
475
472
471
469
467
466
464
460
455
454
453
452
451
451
450
449
449
450
458
469
481
497
514
532
551
570
586
598
604
605
603
596
584
567
554
538
523
506
489
474
459
452
448
444
441
437
436
435
435
437
441
444
447
451
456
458
461
460
460
460
459
458
455
452
448
445
444
442
440
438
436
436
432
427
426
425
423
422
420
418
418
420
422
424
428
433
440
446
453
463
473
483
490
495
498
498
498
495
496
493
489
485
478
472
464
456
451
444
438
433
432
430
426
426
427
430
429
432
434
436
439
440
439
440
441
439
439
438
437
436
441
442
442
441
441
441
437
432
431
430
430
429
429
430
430
431
434
435
437
440
444
447
451
455
462
467
470
472
473
474
472
470
470
468
466
464
461
458
455
454
452
450
448
446
444
443
442
438
441
444
445
447
448
449
448
447
449
449
450
451
452
451
451
452
456
457
456
454
453
452
448
444
444
445
446
446
449
448
449
450
452
454
456
458
460
460
459
459
463
467
469
469
468
465
464
463
464
465
466
466
466
466
464
463
464
463
462
461
461
459
457
456
456
457
456
458
459
460
460
459
460
460
460
461
462
462
461
459
462
465
465
466
466
466
464
460
458
459
458
459
461
460
459
458
461
463
465
465
467
468
466
465
466
469
469
471
470
468
467
468
470
471
470
471
471
469
466
466
469
468
469
468
468
467
466
465
468
468
469
469
472
470
469
469
469
469
469
469
470
470
471
471
473
474
475
476
475
474
472
472
473
471
471
471
472
470
467
467
470
473
476
476
475
474
471
470
470
470
471
471
472
472
471
472
476
479
481
483
484
485
484
483
483
483
485
483
481
479
479
478
479
480
478
479
480
479
478
476
478
479
480
478
479
478
481
481
485
489
489
488
488
489
486
483
484
483
482
483
485
484
481
479
481
483
483
483
482
482
482
483
483
484
484
483
484
485
485
486
489
490
491
490
492
491
489
488
488
488
486
485
485
487
487
487
489
490
491
492
492
492
493
494
496
498
498
497
497
497
497
497
500
501
503
503
502
502
498
495
494
494
494
496
499
500
501
498
501
503
504
504
505
505
503
500
500
499
497
496
495
494
492
493
497
500
501
504
505
505
505
502
503
504
505
505
506
503
500
500
500
499
501
501
503
502
501
500
502
502
502
502
500
499
499
499
499
500
500
500
502
505
504
503
506
512
515
519
525
531
540
546
554
559
563
563
563
561
558
555
553
550
543
539
537
537
534
530
530
531
533
536
536
536
535
536
539
542
546
546
548
549
551
550
552
551
550
548
547
548
546
543
542
541
539
538
536
535
533
532
532
531
532
532
531
529
528
527
527
528
530
530
529
530
530
529
532
532
531
530
528
530
529
529
530
527
525
525
526
528
530
536
546
554
566
576
587
598
607
616
627
634
637
638
636
634
627
622
617
614
607
600
591
584
577
573
568
565
563
564
565
568
570
573
580
585
591
596
600
601
600
600
597
593
586
579
575
570
563
558
559
559
560
560
562
560
557
558
556
555
552
552
552
551
546
543
545
547
547
549
548
547
543
543
543
540
538
535
534
534
534
534
534
537
539
540
541
542
543
548
556
565
579
595
612
631
648
667
688
702
710
712
711
705
695
682
668
651
638
625
613
602
590
581
579
578
576
574
571
574
578
582
588
595
602
607
609
611
607
604
605
601
596
593
588
582
574
565
557
551
547
545
542
539
534
535
537
539
536
536
536
537
535
533
531
530
533
534
535
535
534
533
534
534
534
534
532
529
522
518
518
517
517
515
514
512
511
510
512
518
523
532
543
560
577
599
624
648
669
688
704
714
718
716
712
705
692
677
660
641
620
600
584
572
560
549
540
536
533
531
533
538
544
551
557
564
569
573
579
583
585
585
583
579
573
565
562
558
551
544
537
530
523
515
509
505
504
504
503
502
501
502
504
504
505
508
510
510
507
506
510
512
514
515
517
517
516
513
513
508
505
503
501
499
496
493
492
492
491
490
491
494
498
507
521
540
562
587
615
642
667
689
708
718
724
723
714
699
681
662
646
627
607
589
571
555
542
530
523
517
513
513
515
519
524
531
539
547
552
559
564
570
573
572
572
567
565
558
549
541
533
526
521
515
509
505
501
496
494
491
492
493
494
494
496
496
498
498
499
498
502
503
503
501
499
499
499
500
498
498
498
498
497
496
498
500
499
496
495
491
486
480
478
480
483
490
501
517
536
560
589
620
650
674
697
712
720
720
716
705
689
669
645
614
590
570
557
542
526
511
501
493
489
486
491
496
503
511
518
528
538
547
556
561
561
559
554
547
538
530
524
519
509
503
500
496
491
483
481
481
483
482
483
482
481
481
483
481
484
487
490
491
491
489
490
490
490
488
488
489
488
486
487
486
484
482
481
481
480
476
477
477
478
476
478
480
487
498
516
539
566
596
629
662
693
720
743
757
763
758
745
729
707
682
657
632
606
582
561
543
528
515
510
506
504
502
503
509
513
520
530
538
545
551
556
559
560
559
558
557
552
544
533
520
508
498
490
480
471
466
463
461
461
462
465
464
465
467
469
470
468
468
471
474
475
476
476
477
478
477
480
479
478
476
476
476
474
473
473
472
468
465
464
462
461
460
463
465
467
472
478
491
507
530
561
594
632
669
705
735
755
766
772
769
757
741
718
692
663
631
602
577
555
537
521
507
497
489
487
489
493
494
499
507
514
521
531
540
545
548
549
550
548
543
538
530
522
513
504
493
481
472
467
465
462
459
461
460
459
459
464
467
472
475
478
480
479
479
481
479
480
478
479
477
476
475
477
479
478
477
477
478
476
475
475
474
473
472
470
470
471
475
486
502
524
553
591
632
669
705
737
764
781
788
786
775
756
734
709
679
652
624
597
572
550
532
517
507
498
491
487
486
488
490
494
502
510
520
528
531
536
538
539
536
532
523
516
506
492
481
473
467
464
459
456
452
447
445
447
448
450
454
456
458
460
460
463
466
467
467
467
467
469
467
469
471
468
468
467
465
464
463
462
460
458
457
457
458
457
456
453
453
453
452
453
455
459
470
491
516
550
588
630
672
711
743
766
781
785
779
768
747
720
689
659
629
599
572
546
523
503
485
473
466
463
465
467
473
479
487
497
507
515
521
523
525
528
529
528
526
521
513
504
493
482
473
467
460
454
451
448
446
443
441
440
441
441
442
444
445
447
450
456
461
463
466
468
470
470
468
470
472
473
471
468
467
466
466
466
465
461
458
457
455
454
452
450
447
445
444
446
449
453
460
474
495
519
553
593
634
672
706
736
759
771
774
768
754
729
700
670
640
609
577
548
524
501
483
471
464
459
459
460
460
461
465
476
488
499
507
515
522
525
526
529
528
523
516
507
497
485
474
466
462
458
454
448
441
435
432
432
433
436
440
441
444
446
449
456
462
466
471
473
474
474
473
473
470
468
466
465
465
465
464
463
461
459
458
457
456
450
447
444
442
440
438
439
440
441
445
459
477
498
523
555
594
633
670
704
728
745
753
751
738
716
689
659
630
598
568
541
514
492
475
463
457
454
451
449
449
452
455
464
475
486
494
500
506
509
512
515
516
515
509
505
497
489
479
473
466
460
453
448
444
441
438
437
436
435
435
437
439
440
440
444
448
453
457
461
464
466
468
469
470
470
470
470
467
464
461
460
459
459
458
455
452
450
448
446
443
441
441
443
447
449
454
469
489
517
549
588
629
667
701
732
754
765
767
760
744
717
688
657
626
595
563
535
509
489
473
465
461
456
454
455
460
464
469
478
488
496
504
509
515
520
520
520
517
513
507
501
492
480
472
468
462
456
448
442
438
433
430
428
427
426
423
422
424
423
425
430
433
435
438
441
443
445
448
451
454
454
452
452
455
455
455
456
455
452
450
450
448
443
440
439
441
441
440
438
441
445
454
471
493
520
554
594
634
670
701
726
747
759
759
750
734
710
681
648
615
584
554
530
508
489
475
468
463
461
460
461
462
466
472
482
491
498
505
510
514
515
516
516
515
508
501
497
492
483
477
472
466
460
453
447
442
437
435
434
433
433
434
434
435
434
433
438
444
448
450
453
457
460
459
460
460
461
461
461
461
460
458
459
459
456
454
451
448
444
439
439
441
441
442
448
461
477
501
532
570
610
649
686
717
740
755
761
757
744
724
697
666
635
600
570
544
521
501
484
472
461
456
457
457
460
463
468
474
478
485
495
504
510
514
517
518
517
513
509
504
497
491
481
473
467
463
460
457
454
451
450
448
446
445
445
445
446
446
447
447
446
447
451
453
455
456
457
458
457
456
457
461
462
463
463
462
460
456
456
455
454
451
450
447
446
445
444
446
450
460
478
500
524
556
597
641
680
711
736
751
753
749
735
714
689
662
631
600
570
544
522
504
490
478
470
466
462
461
463
467
472
476
481
488
495
502
510
515
517
520
519
515
511
505
498
490
483
477
470
463
458
452
447
446
443
441
440
439
441
441
443
445
446
448
448
450
450
451
456
460
461
462
462
462
461
460
461
459
459
459
460
459
455
453
452
452
450
451
451
452
453
459
468
479
499
524
553
585
617
648
675
696
709
712
707
695
675
652
627
602
575
551
529
511
495
483
475
466
461
459
458
459
461
463
468
474
481
489
497
507
513
516
521
525
524
520
515
507
498
489
483
476
472
467
464
459
454
449
450
451
452
451
449
449
449
449
452
452
454
457
458
459
459
460
462
461
461
461
461
460
457
453
453
452
449
446
446
444
442
438
440
444
452
465
484
506
533
567
601
633
659
679
694
698
694
686
673
655
631
606
579
554
531
509
492
479
469
463
460
458
459
463
469
475
482
491
499
507
511
515
520
522
522
520
517
512
505
499
496
494
490
483
479
475
472
468
466
464
461
459
459
460
460
458
460
462
466
469
470
471
472
474
478
481
481
480
478
477
475
471
471
470
469
467
465
464
462
466
474
487
504
526
555
587
617
645
670
691
702
704
701
690
670
648
625
603
582
562
544
528
513
502
494
489
485
482
481
482
482
485
492
500
508
514
518
522
525
525
526
525
524
520
515
507
498
489
483
476
471
467
464
461
459
457
456
456
457
459
459
458
457
459
462
462
463
466
467
468
466
466
468
469
469
469
468
467
464
462
462
459
458
459
462
464
468
477
492
509
529
556
583
611
634
655
671
680
682
678
668
654
636
617
597
579
560
541
526
513
501
492
487
482
477
477
479
480
481
484
491
497
504
508
512
515
515
513
511
506
501
495
491
488
481
475
471
469
468
466
465
463
461
458
458
458
457
457
457
457
458
457
461
463
464
466
466
467
466
466
463
463
463
461
460
459
459
459
460
461
464
466
472
481
493
513
537
565
592
617
639
656
665
670
672
666
655
639
623
604
583
563
547
532
518
505
495
488
482
476
475
477
482
487
493
498
499
502
507
513
518
520
519
520
516
510
506
503
499
494
488
483
478
471
469
466
465
461
460
457
456
457
461
461
460
459
459
461
459
459
461
463
463
461
458
455
453
451
453
456
459
462
466
474
484
497
516
538
564
589
615
637
654
663
670
671
665
653
637
619
600
580
565
551
540
528
518
509
498
