1943
1939
1929
1920
1919
1925
1930
1935
1931
1943
1948
1946
1939
1949
1949
1951
1942
1943
1947
1940
1929
1933
1931
1929
1913
1917
1915
1913
1903
1907
1910
1913
1908
1915
1919
1928
1928
1949
1967
1989
2002
2021
2043
2066
2070
2079
2079
2077
2065
2067
2055
2040
2020
2007
1999
1989
1962
1960
1956
1947
1942
1946
1949
1950
1948
1955
1965
1967
1962
1975
1977
1982
1973
1983
1981
1977
1967
1965
1964
1961
1946
1947
1943
1937
1919
1927
1919
1916
1909
1907
1913
1913
1908
1913
1930
1933
1939
1965
1992
2015
2036
2063
2089
2103
2110
2121
2127
2121
2103
2101
2087
2072
2042
2021
2015
2005
1980
1973
1971
1962
1949
1958
1959
1966
1963
1973
1981
1991
1983
1995
1997
1999
1982
1991
1989
1980
1967
1963
1959
1959
1941
1946
1943
1931
1931
1933
1931
1929
1917
1925
1932
1931
1925
1932
1935
1927
1926
1933
1933
1939
1941
1955
1977
1999
2015
2045
2069
2084
2091
2109
2117
2123
2108
2104
2105
2091
2067
2057
2032
2011
1995
1989
1977
1963
1951
1951
1957
1957
1950
1967
1973
1975
1978
1991
1993
1993
1989
1987
1990
1983
1971
1971
1965
1951
1943
1943
1935
1930
1919
1915
1927
1919
1913
1919
1925
1913
1912
1925
1925
1925
1915
1919
1929
1929
1919
1929
1928
1919
1911
1914
1913
1911
1907
1907
1917
1931
1938
1963
1987
1999
2020
2043
2063
2072
2073
2075
2077
2072
2057
2054
2031
2015
1997
1993
1976
1965
1947
1945
1947
1945
1935
1951
1951
1956
1959
1967
1973
1974
1963
1965
1973
1972
1964
1966
1961
1951
1947
1950
1947
1945
1929
1927
1931
1927
1916
1919
1919
1913
1911
1919
1919
1925
1915
1925
1919
1925
1913
1916
1925
1913
1913
1915
1915
1913
1907
1909
1913
1916
1916
1939
1947
1961
1976
2003
2022
2035
2038
2045
2061
2065
2053
2045
2031
2012
1999
1993
1975
1964
1941
1933
1929
1926
1912
1917
1925
1925
1925
1938
1944
1951
1949
1955
1962
1963
1961
1967
1963
1957
1950
1957
1947
1947
1940
1937
1938
1939
1925
1929
1919
1913
1912
1916
1912
1912
1901
1899
1909
1909
1901
1909
1903
1899
1899
1904
1904
1907
1899
1907
1910
1913
1919
1942
1961
1973
1992
2025
2036
2044
2046
2057
2068
2067
2053
2053
2035
2015
2003
1995
1981
1971
1948
1943
1943
1939
1927
1932
1932
1929
1932
1947
1950
1957
1951
1959
1967
1963
1959
1961
1960
1949
1944
1943
1939
1935
1926
1914
1915
1913
1891
1906
1901
1895
1895
1901
1901
1907
1899
1902
1908
1911
1909
1913
1915
1911
1907
1913
1913
1913
1909
1911
1927
1934
1944
1961
1981
1993
2012
2031
2044
2063
2057
2063
2065
2056
2037
2031
2019
2001
1983
1977
1967
1959
1941
1939
1939
1939
1931
1943
1945
1943
1947
1960
1961
1964
1961
1960
1967
1963
1956
1957
1949
1941
1939
1941
1933
1929
1915
1911
1912
1909
1900
1907
1904
1897
1897
1903
1907
1903
1898
1901
1903
1908
1900
1909
1903
1897
1894
1899
1899
1902
1897
1901
1911
1917
1919
1943
1960
1965
1983
2013
2029
2045
2053
2059
2067
2067
2056
2055
2037
2019
2005
1999
1982
1967
1951
1946
1943
1939
1926
1935
1933
1928
1931
1942
1947
1951
1947
1952
1964
1967
1960
1967
1965
1957
1955
1961
1951
1949
1937
1935
1935
1935
1919
1928
1927
1916
1915
1920
1919
1918
1910
1911
1915
1914
1917
1915
1915
1907
1908
1913
1913
1911
1903
1908
1915
1911
1909
1914
1917
1917
1916
1932
1943
1957
1961
1977
2003
2019
2037
2045
2056
2067
2054
2055
2045
2035
2020
2007
2004
1988
1965
1963
1950
1931
1919
1916
1913
1913
1903
1909
1919
1929
1927
1939
1945
1943
1943
1951
1957
1957
1947
1948
1949
1947
1939
1943
1939
1929
1927
1933
1932
1931
1917
1918
1925
1925
1912
1918
1917
1913
1911
1927
1927
1927
1915
1917
1927
1929
1917
1929
1929
1929
1928
1935
1933
1939
1931
1941
1951
1960
1966
1989
2005
2019
2029
2055
2069
2071
2066
2067
2067
2060
2035
2031
2025
2003
1992
1988
1975
1965
1951
1951
1949
1949
1943
1949
1951
1953
1958
1971
1975
1976
1967
1972
1977
1976
1971
1977
1975
1965
1961
1961
1960
1951
1938
1933
1931
1928
1914
1915
1916
1913
1911
1915
1917
1915
1911
1915
1925
1925
1914
1925
1919
1915
1911
1919
1917
1917
1907
1910
1914
1919
1918
1939
1949
1957
1972
1994
2009
2021
2024
2027
2040
2039
2029
2027
2021
2005
1995
1989
1975
1962
1939
1931
1933
1929
1913
1919
1927
1927
1917
1942
1947
1952
1949
1956
1965
1967
1959
1967
1964
1955
1946
1949
1943
1939
1927
1925
1919
1917
1907
1912
1909
1902
1900
1902
1903
1900
1893
1895
1898
1901
1897
1907
1907
1902
1899
1909
1913
1913
1909
1917
1933
1947
1962
1973
1991
2001
2007
2023
2025
2025
2015
2010
2011
2003
1979
1977
1966
1949
1938
1934
1927
1916
1902
1903
1911
1911
1908
1917
1919
1919
1925
1932
1935
1939
1931
1934
1939
1938
1928
1931
1931
1917
1913
1917
1911
1911
1899
1896
1902
1899
1895
1901
1897
1887
1885
1897
1897
1899
1886
1885
1895
1895
1891
1901
1901
1907
1913
1932
1945
1959
1963
1975
1992
2001
1997
2011
2011
2003
1992
1993
1981
1971
1950
1939
1934
1927
1914
1910
1907
1900
1899
1911
1912
1913
1913
1919
1939
1936
1939
1948
1951
1950
1947
1955
1957
1958
1945
1947
1949
1947
1941
1944
1941
1931
1926
1928
1927
1919
1909
1910
1909
1910
1896
1901
1902
1897
1898
1912
1919
1931
1935
1947
1965
1978
1980
1998
2005
1999
2002
2005
2003
1992
1972
1959
1955
1944
1917
1918
1909
1895
1893
1895
1895
1895
1891
1895
1907
1911
1909
1918
1931
1925
1929
1939
1942
1943
1939
1939
1943
1942
1931
1934
1930
1915
1911
1917
1915
1911
1894
1901
1901
1908
1895
1899
1901
1897
1901
1912
1929
1943
1948
1963
1983
2002
2007
2023
2029
2028
2027
2031
2023
2011
1991
1979
1973
1961
1945
1941
1933
1917
1912
1913
1919
1919
1916
1920
1931
1939
1935
1947
1951
1952
1951
1965
1967
1967
1957
1951
1955
1949
1935
1938
1933
1933
1917
1927
1919
1915
1903
1903
1907
1907
1899
1913
1928
1935
1951
1978
2004
2023
2039
2065
2085
2095
2091
2099
2093
2078
2065
2056
2036
2014
1992
1977
1973
1961
1949
1951
1947
1939
1938
1947
1950
1951
1951
1960
1971
1971
1967
1975
1975
1971
1967
1972
1965
1961
1945
1944
1941
1939
1929
1933
1928
1912
1909
1913
1911
1907
1902
1907
1919
1929
1935
1961
1980
2003
2029
2067
2095
2121
2133
2143
2151
2151
2132
2126
2109
2087
2063
2045
2025
2005
1975
1965
1957
1945
1932
1941
1941
1939
1942
1957
1965
1971
1971
1979
1990
1994
1982
1983
1979
1965
1960
1959
1947
1941
1925
1918
1919
1913
1903
1903
1902
1899
1899
1911
1909
1911
1903
1903
1913
1915
1911
1931
1946
1957
1979
2019
2057
2089
2110
2141
2171
2186
2187
2195
2187
2165
2142
2130
2105
2079
2039
2015
1995
1974
1950
1943
1933
1919
1917
1932
1943
1951
1957
1967
1983
1992
1991
1997
1996
1983
1977
1978
1972
1961
1941
1928
1925
1911
1894
1886
1880
1864
1849
1860
1851
1847
1836
1835
1837
1839
1835
1845
1845
1839
1839
1849
1847
1851
1847
1847
1861
1855
1851
1864
1875
1882
1901
1939
1974
2019
2056
2098
2143
2173
2188
2211
2217
2203
2191
2181
2155
2132
2092
2067
2037
2011
1979
1965
1949
1933
1926
1933
1939
1943
1946
1957
1971
1977
1980
1993
1995
1993
1990
1994
1983
1975
1955
1947
1941
1929
1913
1911
1903
1893
1882
1885
1883
1883
1875
1876
1880
1883
1878
1891
1892
1887
1889
1897
1895
1899
1891
1891
1895
1893
1883
1893
1887
1879
1877
1881
1879
1877
1867
1867
1875
1876
1864
1869
1871
1863
1855
1865
1861
1863
1855
1865
1883
1903
1930
1970
2011
2057
2093
2143
2181
2203
2213
2221
2228
2217
2199
2183
2155
2121
2087
2065
2031
2008
1978
1958
1949
1933
1915
1914
1915
1913
1917
1937
1946
1951
1949
1956
1968
1970
1961
1965
1961
1948
1939
1931
1917
1908
1891
1881
1879
1875
1863
1867
1865
1853
1853
1864
1865
1867
1855
1867
1877
1877
1869
1885
1881
1877
1877
1883
1883
1879
1869
1869
1883
1874
1864
1869
1865
1853
1854
1863
1864
1862
1849
1849
1855
1853
1846
1854
1854
1847
1845
1851
1851
1851
1843
1845
1851
1862
1864
1885
1908
1939
1961
2007
2055
2088
2116
2143
2169
2183
2175
2173
2157
2129
2099
2074
2040
2015
1977
1951
1935
1913
1893
1885
1880
1871
1870
1881
1891
1897
1897
1903
1927
1939
1943
1949
1955
1949
1941
1941
1933
1924
1903
1896
1891
1884
1869
1871
1865
1851
1845
1851
1849
1851
1847
1849
1855
1865
1854
1865
1865
1861
1861
1868
1869
1875
1864
1866
1871
1869
1863
1868
1867
1855
1850
1865
1864
1860
1851
1849
1855
1855
1847
1853
1848
1839
1835
1843
1849
1852
1861
1885
1911
1945
1971
2013
2053
2075
2099
2121
2126
2124
2106
2093
2079
2059
2022
2008
1977
1951
1920
1910
1891
1879
1862
1855
1866
1871
1873
1887
1908
1903
1913
1933
1941
1945
1941
1943
1943
1939
1927
1927
1917
1913
1895
1891
1884
1879
1865
1855
1863
1855
1847
1855
1861
1850
1851
1861
1864
1867
1865
1867
1876
1877
1871
1879
1880
1877
1867
1876
1869
1868
1853
1851
1855
1853
1853
1866
1875
1879
1894
1919
1949
1979
2004
2029
2065
2078
2085
2095
2091
2083
2068
2058
2037
2012
1987
1961
1945
1927
1895
1885
1877
1863
1861
1866
1865
1871
1868
1881
1896
1907
1907
1925
1931
1919
1919
1929
1927
1919
1909
1907
1901
1897
1881
1883
1878
1867
1861
1864
1863
1855
1845
1845
1851
1849
1847
1855
1863
1861
1869
1875
1875
1879
1867
1878
1885
1883
1873
1879
1879
1869
1871
1883
1891
1901
1909
1935
1967
1999
2019
2053
2074
2086
2091
2105
2105
2099
2079
2065
2054
2029
2001
1984
1963
1940
1913
1907
1891
1883
1875
1874
1883
1887
1885
1899
1909
1909
1916
1931
1933
1935
1931
1931
1931
1929
1913
1913
1903
1891
1881
1877
1877
1869
1854
1849
1852
1849
1843
1851
1852
1849
1848
1863
1864
1863
1855
1863
1870
1875
1867
1875
1876
1876
1871
1879
1881
1879
1874
1869
1875
1880
1879
1893
1908
1919
1943
1976
2001
2025
2031
2059
2083
2093
2087
2091
2084
2068
2041
2031
2015
1993
1967
1955
1945
1935
1913
1915
1909
1901
1901
1911
1916
1925
1927
1933
1941
1947
1947
1959
1957
1950
1947
1951
1946
1943
1928
1918
1919
1915
1903
1901
1903
1895
1890
1891
1893
1891
1881
1883
1887
1891
1883
1891
1895
1890
1885
1897
1899
1901
1893
1893
1897
1897
1891
1895
1897
1891
1891
1899
1911
1918
1931
1951
1976
1997
2012
2040
2059
2067
2066
2080
2077
2075
2059
2043
2035
2019
1995
1992
1973
1957
1943
1939
1933
1931
1915
1919
1920
1928
1917
1929
1931
1928
1935
1946
1955
1955
1950
1949
1957
1957
1944
1945
1941
1931
1925
1927
1924
1911
1901
1899
1903
1900
1891
1897
1899
1893
1893
1901
1899
1903
1896
1902
1913
1915
1909
1916
1913
1913
1903
1915
1910
1909
1903
1903
1913
1933
1919
1943
1956
1966
1979
2009
2025
2039
2043
2059
2069
2068
2056
2057
2043
2027
2013
2007
1991
1975
1955
1945
1941
1935
1915
1929
1931
1928
1931
1944
1947
1959
1950
1957
1964
1967
1965
1974
1979
1965
1957
1959
1951
1948
1931
1927
1930
1919
1911
1917
1915
1910
1907
1911
1909
1908
1899
1898
1907
1903
1899
1903
1907
1900
1899
1903
1908
1915
1913
1925
1945
1957
1963
1988
2005
2013
2025
2041
2054
2055
2040
2037
2034
2023
2003
1997
1989
1967
1951
1945
1934
1929
1911
1909
1913
1915
1912
1927
1933
1934
1941
1950
1957
1961
1960
1960
1965
1963
1951
1957
1949
1945
1941
1949
1945
1943
1929
1927
1939
1929
1917
1925
1918
1908
1903
1904
1907
1907
1895
1896
1901
1907
1910
1927
1946
1959
1976
2003
2021
2035
2039
2053
2063
2067
2054
2053
2037
2019
2005
1998
1980
1973
1951
1945
1941
1939
1925
1929
1929
1927
1927
1940
1944
1947
1948
1959
1967
1975
1973
1981
1983
1974
1971
1977
1971
1966
1952
1946
1947
1940
1927
1929
1927
1916
1915
1919
1919
1917
1911
1915
1919
1931
1931
1947
1958
1972
1992
2019
2032
2057
2063
2077
2091
2093
2087
2089
2079
2059
2040
2031
2021
2007
1989
1977
1967
1960
1945
1945
1940
1930
1930
1944
1951
1959
1961
1977
1981
1981
1979
1995
1991
1979
1975
1979
1973
1967
1957
1951
1949
1945
1935
1939
1939
1929
1919
1927
1927
1917
1906
1909
1916
1927
1932
1957
1977
1995
2019
2053
2075
2095
2108
2124
2136
2137
2126
2123
2109
2085
2067
2053
2029
2011
1981
1968
1962
1951
1939
1943
1945
1942
1943
1959
1965
1975
1974
1981
1995
2001
2007
2003
2003
1995
1989
1989
1983
1976
1966
1961
1959
1956
1945
1949
1943
1932
1930
1933
1928
1927
1914
1917
1929
1935
1939
1959
1977
1996
2024
2065
2093
2119
2137
2151
2168
2171
2159
2157
2147
2133
2105
2095
2077
2057
2025
2008
1997
1983
1967
1967
1971
1965
1963
1972
1967
1980
1979
1989
2001
2007
1999
2008
2002
1993
1983
1989
1979
1967
1950
1945
1945
1938
1927
1929
1925
1912
1911
1915
1913
1916
1910
1911
1915
1917
1911
1917
1915
1911
1911
1917
1919
1917
1909
1910
1913
1915
1913
1926
1938
1948
1967
2001
2029
2067
2088
2119
2143
2160
2163
2173
2169
2155
2141
2132
2111
2089
2063
2041
2028
2015
1994
1989
1976
1966
1959
1965
1971
1973
1968
1977
1990
1991
1982
1994
1995
1991
1989
1993
1989
1980
1967
1961
1961
1951
1939
1933
1927
1913
1903
1911
1908
1909
1895
1896
1899
1899
1893
1901
1901
1895
1895
1900
1901
1901
1898
1899
1907
1909
1899
1909
1909
1901
1897
1899
1896
1895
1887
1883
1883
1891
1884
1906
1919
1935
1961
1995
2025
2059
2076
2103
2119
2131
2120
2124
2111
2095
2074
2067
2043
2025
1998
1988
1975
1965
1948
1949
1940
1929
1925
1929
1933
1937
1935
1941
1951
1957
1951
1959
1959
1957
1954
1959
1956
1949
1934
1930
1929
1918
1907
1903
1899
1885
1881
1885
1883
1883
1878
1879
1883
1885
1883
1890
1887
1881
1878
1883
1883
1883
1875
1874
1871
1874
1865
1869
1867
1865
1863
1867
1867
1867
1863
1863
1875
1875
1869
1877
1878
1876
1883
1903
1926
1947
1965
1989
2023
2032
2036
2045
2045
2038
2029
2027
2011
2008
1977
1965
1957
1942
1926
1919
1915
1903
1899
1903
1903
1903
1899
1903
1913
1917
1916
1929
1935
1929
1929
1935
1935
1939
1927
1919
1919
1915
1901
1901
1891
1881
1871
1877
1875
1871
1863
1861
1867
1867
1863
1869
1871
1867
1869
1880
1887
1885
1878
1877
1882
1885
1878
1887
1890
1883
1878
1885
1883
1883
1874
1871
1880
1880
1869
1881
1885
1887
1896
1915
1932
1956
1961
1979
1999
2013
2013
2028
2029
2011
2019
2019
2004
1995
1973
1961
1956
1943
1925
1926
1913
1899
1896
1899
1899
1899
1896
1896
1908
1915
1913
1929
1933
1931
1929
1939
1938
1939
1926
1927
1915
1909
1901
1899
1898
1885
1880
1885
1885
1885
1880
1881
1883
1883
1877
1880
1881
1878
1876
1883
1879
1879
1871
1875
1883
1883
1878
1885
1885
1879
1875
1882
1883
1885
1883
1885
1896
1908
1912
1933
1950
1959
1971
1993
2001
2005
1999
2002
2003
1992
1975
1973
1961
1947
1939
1935
1927
1915
1903
1893
1895
1893
1883
1893
1897
1895
1900
1911
1915
1919
1913
1913
1919
1915
1912
1915
1913
1903
1901
1902
1900
1897
1884
1885
1892
1885
1879
1885
1884
1887
1873
1879
1879
1879
1875
1877
1881
1883
1871
1883
1883
1882
1882
1890
1893
1891
1881
1884
1894
1897
1892
1907
1913
1918
1931
1950
1963
1971
1972
1976
1983
1983
1973
1975
1967
1955
1944
1942
1933
1925
1907
1903
1906
1901
1895
1901
1907
1903
1907
1917
1919
1927
1919
1925
1932
1929
1919
1929
1929
1924
1915
1926
1925
1913
1909
1915
1907
1911
1899
1901
1903
1895
1892
1897
1894
1895
1891
1891
1897
1896
1887
1896
1898
1893
1897
1909
1917
1932
1939
1949
1971
1983
1989
2003
2007
2003
1997
1999
1991
1979
1962
1957
1948
1940
1917
1915
1911
1899
1901
1901
1901
1903
1900
1909
1918
1929
1931
1942
1944
1945
1945
1957
1955
1949
1941
1939
1941
1933
1926
1925
1919
1913
1907
1911
1911
1909
1900
1899
1903
1902
1896
1903
1907
1897
1907
1913
1919
1933
1941
1957
1981
1997
2007
2028
2041
2041
2041
2056
2045
2039
2023
2011
2005
1991
1972
1966
1959
1943
1933
1933
1929
1927
1917
1917
1931
1935
1932
1943
1947
1945
1947
1959
1960
1957
1950
1948
1948
1947
1935
1941
1937
1925
1919
1927
1919
1916
1911
1907
1909
1904
1897
1903
1898
1897
1899
1911
1917
1933
1945
1963
1993
2020
2039
2075
2092
2104
2108
2121
2121
2109
2095
2079
2070
2053
2023
2011
1992
1965
1951
1947
1943
1939
1931
1931
1943
1945
1944
1959
1962
1965
1967
1979
1989
1991
1980
1977
1979
1977
1964
1967
1959
1947
1939
1931
1925
1915
1903
1903
1901
1899
1890
1893
1893
1885
1885
1898
1900
1910
1909
1919
1943
1961
1979
2019
2045
2075
2101
2126
2140
2151
2143
2141
2135
2121
2091
2078
2055
2021
1993
1978
1959
1944
1925
1915
1917
1917
1914
1927
1933
1940
1945
1960
1967
1971
1967
1971
1975
1975
1961
1961
1957
1943
1933
1933
1929
1926
1907
1903
1903
1895
1893
1894
1895
1887
1893
1897
1896
1897
1890
1893
1897
1897
1887
1895
1896
1893
1901
1925
1943
1965
1989
2019
2055
2078
2091
2115
2123
2123
2117
2111
2102
2085
2055
2031
2013
1989
1961
1947
1935
1916
1911
1913
1914
1915
1915
1927
1935
1944
1945
1961
1967
1974
1971
1976
1973
1967
1957
1947
1947
1938
1927
1919
1915
1903
1895
1897
1894
1891
1880
1878
1883
1883
1880
1884
1887
1885
1893
1899
1901
1911
1897
1903
1911
1913
1909
1915
1913
1899
1899
1903
1901
1901
1895
1909
1927
1939
1951
1989
2015
2039
2065
2091
2105
2109
2105
2101
2093
2079
2056
2037
2021
1993
1968
1959
1940
1930
1909
1901
1903
1903
1899
1911
1919
1925
1935
1948
1955
1959
1955
1957
1963
1964
1951
1959
1949
1944
1935
1933
1925
1917
1901
1893
1892
1885
1877
1883
1881
1877
1875
1881
1881
1883
1879
1883
1884
1885
1881
1893
1895
1886
1891
1895
1897
1893
1883
1883
1885
1884
1877
1885
1891
1896
1911
1939
1961
1983
2007
2031
2063
2079
2085
2093
2090
2079
2065
2056
2029
2013
1983
1964
1951
1934
1911
1909
1897
1887
1887
1898
1899
1908
1909
1917
1939
1943
1945
1955
1956
1951
1948
1949
1945
1943
1931
1927
1926
1916
1907
1908
1903
1899
1891
1897
1893
1891
1881
1881
1887
1886
1880
1887
1887
1881
1880
1889
1901
1893
1893
1893
1901
1901
1895
1901
1899
1895
1885
1899
1898
1895
1891
1897
1907
1917
1932
1963
1983
2007
2030
2059
2073
2083
2084
2083
2087
2077
2056
2043
2026
2003
1982
1973
1959
1949
1941
1935
1940
1942
1943
1949
1957
1958
1961
1971
1973
1975
1967
1967
1968
1963
1951
1950
1935
1917
1901
1899
1895
1881
1867
1863
1863
1861
1853
1861
1863
1853
1855
1869
1879
1883
1881
1885
1899
1902
1901
1911
1911
1907
1899
1903
1903
1897
1887
1885
1891
1894
1893
1903
1917
1919
1939
1965
1989
2008
2019
2031
2043
2055
2042
2041
2029
2013
1994
1989
1967
1951
1930
1914
1903
1895
1878
1881
1880
1880
1883
1893
1899
1911
1911
1918
1935
1945
1939
1945
1947
1943
1939
1945
1940
1932
1917
1911
1915
1911
1897
1901
1899
1893
1890
1895
1895
1893
1885
1887
1895
1893
1885
1891
1891
1885
1884
1891
1893
1893
1885
1891
1900
1912
1913
1939
1955
1965
1979
1997
2011
2015
2011
2008
2003
1997
1976
1973
1957
1939
1927
1917
1907
1895
1876
1871
1876
1878
1874
1885
1896
1898
1902
1915
1925
1929
1933
1939
1947
1948
1944
1947
1943
1933
1927
1939
1918
1912
1903
1898
1901
1897
1892
1898
1896
1891
1890
1895
1895
1897
1886
1899
1903
1912
1914
1933
1941
1959
1976
2003
2021
2037
2040
2043
2061
2056
2037
2031
2021
2003
1981
1967
1948
1929
1907
1894
1886
1879
1867
1871
1875
1877
1883
1899
1913
1926
1929
1941
1949
1957
1951
1957
1951
1951
1943
1947
1949
1944
1939
1937
1941
1941
1933
1933
1933
1917
1916
1919
1925
1919
1914
1919
1933
1947
1952
1980
2006
2023
2045
2073
2089
2104
2101
2103
2103
2092
2073
2057
2031
2006
1979
1963
1947
1931
1909
1899
1901
1898
1899
1909
1919
1927
1939
1957
1966
1975
1977
1981
1991
1991
1977
1977
1973
1964
1951
1949
1943
1932
1913
1911
1909
1908
1899
1907
1901
1895
1896
1903
1900
1907
1902
1911
1932
1949
1965
1999
2027
2054
2077
2107
2123
2133
2131
2127
2123
2108
2083
2071
2043
2020
1993
1973
1959
1943
1919
1915
1915
1914
1904
1915
1928
1930
1933
1957
1957
1961
1959
1959
1965
1959
1945
1946
1940
1928
1915
1917
1913
1911
1897
1896
1897
1897
1891
1895
1893
1885
1880
1885
1885
1885
1886
1897
1918
1941
1959
1990
2019
2041
2065
2093
2105
2119
2109
2107
2105
2093
2068
2055
2027
2003
1976
1965
1943
1927
1907
1897
1900
1895
1894
1900
1911
1909
1917
1935
1946
1957
1951
1956
1966
1963
1951
1957
1947
1938
1929
1931
1925
1914
1903
1899
1897
1895
1884
1884
1882
1876
1871
1876
1875
1877
1865
1867
1879
1883
1891
1913
1935
1951
1976
2007
2039
2063
2072
2087
2091
2088
2105
2154
2095
1896
1622
1349
1098
930
847
887
1030
1276
1617
1973
2301
2579
2803
2959
3054
3095
3065
3005
2931
2827
2708
2603
2494
2391
2296
2229
2157
2107
2057
2025
2001
1995
1984
1997
2001
2004
2011
2028
2037
2053
2056
2065
2071
2073
2071
2076
2079
2079
2085
2105
2125
2143
2157
2187
2218
2238
2249
2269
2278
2268
2261
2259
2245
2221
2191
2172
2159
2139
2110
2101
2087
2066
2057
2063
2063
2067
2065
2071
2087
2095
2091
2106
2109
2104
2101
2110
2106
2102
2087
2079
2079
2073
2055
2053
2039
2023
2014
2019
2011
2008
1997
1997
2003
2011
1998
2005
2005
2003
1997
2005
2005
2002
1991
1991
1995
1997
1991
2003
2011
2021
2035
2065
2100
2109
2123
2140
2155
2163
2155
2159
2154
2133
2118
2106
2088
2072
2042
2025
2013
2003
1980
1977
1976
1963
1963
1975
1980
1983
1991
1994
2007
2009
2005
2011
2013
2007
2003
2015
1998
1992
1977
1967
1971
1963
1955
1951
1947
1940
1932
1939
1935
1935
1927
1927
1937
1941
1938
1947
1952
1948
1947
1959
1955
1960
1941
1940
1944
1943
1933
1935
1931
1917
1915
1927
1931
1939
1941
1961
1991
2013
2030
2073
2095
2109
2123
2139
2141
2147
2130
2117
2111
2095
2073
2065
2039
2015
1999
1993
1981
1971
1957
1951
1957
1959
1952
1965
1972
1971
1976
1983
1992
1993
1983
1989
1992
1989
1976
1979
1972
1961
1950
1951
1947
1943
1935
1927
1929
1927
1913
1914
1917
1912
1909
1913
1914
1915
1909
1915
1925
1917
1912
1917
1919
1914
1913
1919
1925
1918
1910
1903
1911
1909
1897
1903
1900
1891
1887
1895
1892
1893
1887
1899
1913
1937
1951
1981
2011
2031
2058
2087
2100
2103
2101
2101
2099
2087
2070
2063
2041
2021
2003
1992
1975
1965
1947
1942
1943
1943
1935
1943
1945
1946
1948
1964
1967
1971
1963
1967
1973
1974
1963
1966
1961
1951
1945
1947
1943
1933
1919
1915
1917
1915
1903
1911
1909
1903
1901
1909
1909
1909
1901
1905
1903
1911
1903
1912
1911
1904
1902
1911
1907
1907
1899
1899
1904
1907
1899
1903
1903
1897
1896
1899
1899
1897
1890
1891
1895
1893
1883
1883
1896
1901
1911
1935
1951
1976
1981
2005
2026
2043
2045
2066
2057
2056
2045
2041
2029
2011
1992
1976
1967
1957
1939
1935
1927
1915
1913
1919
1919
1920
1919
1926
1941
1942
1947
1957
1959
1955
1951
1959
1961
1951
1940
1936
1934
1929
1913
1919
1913
1907
1897
1901
1897
1897
1886
1893
1896
1899
1894
1897
1900
1893
1891
1901
1901
1901
1895
1896
1903
1902
1897
1901
1898
1897
1894
1900
1901
1896
1890
1887
1893
1891
1881
1887
1891
1881
1882
1895
1901
1911
1915
1935
1959
1977
1983
2010
2022
2021
2027
2035
2035
2026
2009
2005
1996
1981
1963
1959
1945
1929
1915
1919
1915
1912
1907
1907
1917
1919
1916
1931
1933
1931
1931
1943
1941
1945
1937
1939
1945
1941
1931
1938
1932
1919
1911
1915
1911
1909
1896
1895
1895
1895
1885
1896
1897
1895
1889
1897
1896
1895
1891
1891
1893
1891
1885
1893
1894
1887
1885
1895
1893
1893
1883
1884
1893
1892
1884
1890
1892
1886
1885
1897
1903
1911
1913
1935
1957
1975
1981
2005
2013
2013
2015
2019
2013
2005
1982
1973
1968
1955
1939
1935
1927
1911
1897
1903
1901
1903
1899
1903
1916
1919
1917
1934
1939
1939
1935
1947
1949
1949
1941
1939
1939
1941
1925
1931
1919
1916
1909
1913
1911
1903
1894
1894
1899
1901
1893
1898
1899
1899
1897
1907
1903
1902
1893
1895
1899
1899
1892
1899
1901
1897
1897
1901
1897
1897
1892
1897
1910
1915
1927
1945
1961
1965
1973
1993
1997
2003
1996
1993
1999
1994
1983
1981
1975
1957
1944
1941
1933
1925
1911
1903
1901
1903
1897
1903
1907
1901
1904
1918
1927
1931
1929
1933
1943
1945
1939
1941
1940
1935
1930
1943
1937
1932
1917
1915
1915
1912
1904
1907
1903
1895
1895
1899
1899
1897
1890
1887
1897
1897
1893
1907
1913
1919
1935
1952
1967
1983
1991
2008
2022
2025
2022
2029
2025
2013
2003
1999
1991
1979
1961
1955
1949
1941
1927
1929
1927
1909
1913
1927
1931
1932
1930
1932
1945
1951
1947
1959
1961
1958
1959
1961
1961
1957
1945
1944
1945
1940
1928
1930
1927
1915
1911
1917
1914
1913
1907
1908
1915
1916
1909
1913
1916
1917
1929
1945
1965
1981
1993
2014
2039
2065
2071
2087
2091
2085
2079
2079
2071
2055
2032
2019
2012
1999
1977
1975
1963
1949
1943
1947
1947
1947
1941
1951
1961
1971
1968
1979
1981
1981
1979
1991
1989
1983
1973
1968
1969
1967
1956
1959
1951
1945
1933
1941
1934
1929
1915
1915
1927
1919
1911
1919
1919
1917
1915
1927
1929
1937
1935
1947
1973
1995
2011
2041
2063
2078
2088
2103
2117
2111
2103
2099
2093
2084
2067
2055
2039
2015
1999
1993
1977
1967
1958
1951
1958
1959
1955
1961
1971
1973
1971
1983
1991
1994
1991
1992
1999
1995
1983
1989
1981
1971
1965
1965
1961
1951
1943
1939
1938
1933
1920
1929
1928
1918
1915
1919
1917
1917
1911
1914
1919
1927
1916
1925
1929
1919
1915
1927
1925
1927
1917
1927
1943
1957
1971
2003
2025
2043
2068
2089
2103
2107
2106
2104
2107
2095
2078
2073
2057
2029
2014
2009
1993
1978
1959
1951
1951
1947
1942
1949
1949
1949
1952
1965
1972
1979
1975
1991
1993
1991
1980
1983
1981
1971
1965
1965
1962
1951
1937
1933
1931
1929
1913
1915
1917
1907
1903
1915
1911
1912
1904
1911
1907
1915
1901
1909
1912
1901
1901
1909
1911
1911
1897
1897
1904
1903
1895
1903
1903
1901
1896
1903
1903
1903
1897
1907
1928
1943
1959
1990
2013
2031
2056
2083
2095
2102
2095
2091
2089
2083
2059
2053
2037
2013
1995
1989
1973
1960
1944
1940
1941
1942
1933
1945
1946
1951
1952
1967
1973
1979
1972
1977
1981
1981
1974
1977
1975
1963
1955
1955
1948
1943
1927
1917
1917
1914
1902
1909
1903
1899
1895
1903
1899
1901
1896
1901
1907
1907
1899
1913
1911
1903
1899
1909
1909
1917
1897
1895
1897
1897
1893
1899
1903
1903
1912
1935
1952
1973
1983
2012
2045
2071
2079
2093
2101
2093
2089
2083
2077
2063
2032
2021
2007
1993
1966
1958
1947
1931
1919
1925
1919
1918
1919
1917
1935
1938
1939
1951
1955
1951
1955
1963
1963
1959
1949
1945
1945
1939
1919
1919
1915
1900
1896
1899
1896
1893
1882
1883
1891
1891
1883
1891
1893
1883
1885
1895
1896
1893
1885
1891
1897
1899
1891
1893
1887
1881
1875
1879
1881
1881
1880
1886
1909
1927
1943
1981
1997
2013
2031
2059
2069
2071
2063
2055
2054
2036
2019
2007
1993
1967
1951
1944
1932
1918
1901
1899
1902
1902
1907
1912
1919
1927
1931
1945
1950
1959
1952
1957
1965
1961
1949
1951
1943
1933
1924
1917
1913
1909
1893
1890
1893
1884
1879
1883
1881
1875
1873
1880
1880
1883
1875
1879
1881
1885
1880
1883
1881
1879
1876
1883
1884
1885
1875
1880
1877
1879
1871
1879
1883
1883
1897
1925
1941
1964
1977
2003
2025
2037
2041
2065
2055
2037
2024
2021
2007
1991
1964
1951
1943
1929
1908
1903
1895
1881
1879
1880
1883
1884
1885
1891
1899
1903
1903
1917
1920
1919
1919
1929
1927
1919
1904
1903
1903
1897
1883
1885
1881
1870
1866
1869
1865
1865
1853
1850
1863
1856
1853
1863
1862
1853
1853
1861
1863
1867
1861
1864
1868
1871
1863
1869
1869
1865
1861
1873
1880
1884
1887
1902
1927
1944
1955
1977
1992
1995
1997
2011
2009
2007
1993
1993
1977
1965
1943
1935
1919
1901
1892
1887
1881
1881
1871
1877
1883
1891
1891
1903
1913
1912
1913
1931
1933
1933
1928
1929
1929
1927
1910
1907
1899
1887
1881
1886
1877
1875
1867
1867
1871
1869
1863
1867
1868
1863
1855
1867
1867
1867
1861
1862
1868
1871
1867
1881
1887
1887
1894
1911
1925
1940
1943
1961
1978
1995
1997
2013
2015
2009
2003
2005
1992
1981
1962
1949
1941
1927
1903
1907
1895
1883
1875
1884
1883
1887
1886
1895
1909
1916
1918
1935
1939
1938
1939
1947
1943
1946
1932
1932
1931
1927
1908
1908
1899
1885
1880
1884
1883
1879
1869
1874
1875
1877
1867
1877
1879
1875
1877
1895
1905
1919
1935
1958
1984
2009
2021
2039
2067
2063
2059
2065
2063
2053
2026
2010
1997
1979
1955
1945
1929
1915
1901
1901
1897
1896
1893
1893
1901
1913
1911
1931
1935
1937
1939
1951
1951
1951
1943
1941
1943
1940
1926
1929
1918
1911
1902
1907
1902
1899
1887
1883
1892
1886
1877
1884
1883
1875
1869
1875
1878
1879
1882
1893
1916
1939
1956
1989
2011
2025
2040
2065
2073
2074
2067
2063
2059
2045
2021
2013
1997
1971
1951
1943
1930
1917
1899
1897
1900
1899
1895
1909
1914
1916
1931
1943
1951
1959
1951
1955
1961
1957
1946
1947
1943
1929
1915
1916
1912
1903
1896
1891
1891
1891
1877
1881
1879
1869
1865
1869
1873
1871
1867
1865
1876
1883
1884
1903
1928
1943
1965
2002
2023
2044
2057
2072
2085
2083
2072
2069
2059
2030
2013
2003
1981
1963
1945
1929
1925
1913
1901
1903
1907
1903
1907
1918
1931
1941
1939
1943
1959
1961
1957
1963
1963
1951
1945
1951
1943
1937
1917
1911
1910
1902
1891
1895
1891
1879
1880
1877
1877
1879
1869
1869
1875
1871
1867
1870
1876
1877
1883
1899
1917
1940
1955
1979
2009
2035
2044
2071
2083
2079
2074
2073
2065
2042
2015
2001
1977
1967
1945
1935
1915
1899
1891
1891
1887
1885
1882
1885
1899
1909
1910
1928
1934
1939
1941
1949
1951
1949
1943
1943
1935
1929
1911
1913
1907
1893
1885
1885
1885
1879
1869
1871
1875
1875
1865
1871
1875
1868
1867
1876
1881
1885
1884
1899
1919
1943
1963
1996
2015
2031
2046
2069
2072
2072
2059
2041
2035
2015
1991
1977
1959
1940
1917
1913
1897
1893
1877
1875
1882
1885
1885
1903
1913
1916
1930
1945
1951
1955
1951
1951
1961
1961
1950
1957
1949
1941
1931
1933
1931
1927
1913
1909
1912
1907
1897
1899
1899
1893
1891
1899
1899
1902
1907
1915
1940
1960
1975
2005
2029
2045
2071
2091
2103
2109
2101
2099
2091
2075
2043
2027
2005
1977
1959
1943
1928
1914
1899
1895
1901
1901
1903
1915
1932
1939
1946
1963
1973
1975
1971
1972
1975
1971
1959
1957
1951
1938
1928
1927
1917
1909
1899
1894
1895
1895
1883
1890
1892
1885
1881
1892
1893
1897
1903
1899
1916
1932
1947
1977
2011
2039
2072
2108
2133
2149
2151
2159
2159
2151
2125
2109
2085
2053
2020
1997
1975
1947
1919
1904
1898
1896
1890
1899
1903
1909
1915
1939
1949
1963
1967
1973
1988
1992
1983
1992
1984
1973
1967
1971
1971
1968
1960
1959
1962
1961
1951
1955
1957
1949
1945
1949
1951
1947
1938
1933
1939
1934
1925
1935
1944
1951
1972
2009
2037
2073
2094
2117
2151
2159
2157
2157
2149
2127
2105
2087
2067
2031
2002
1975
1959
1937
1910
1907
1897
1891
1885
1900
1907
1919
1925
1939
1956
1965
1963
1976
1979
1973
1967
1971
1962
1958
1942
1931
1933
1919
1901
1901
1895
1879
1875
1877
1873
1869
1864
1869
1871
1869
1865
1875
1877
1877
1884
1907
1931
1958
1979
2009
2045
2077
2091
2111
2121
2111
2106
2103
2085
2067
2029
2007
1983
1963
1935
1919
1907
1893
1881
1891
1891
1891
1891
1897
1912
1919
1927
1947
1951
1951
1955
1964
1961
1959
1945
1940
1934
1931
1901
1909
1901
1892
1884
1893
1881
1875
1867
1867
1871
1875
1865
1869
1870
1865
1864
1877
1879
1887
1891
1909
1939
1963
1980
2015
2039
2063
2075
2099
2103
2103
2091
2077
2065
2039
2008
1991
1965
1931
1912
1901
1887
1879
1866
1867
1875
1883
1884
1903
1916
1929
1939
1959
1963
1963
1959
1959
1960
1959
1947
1944
1939
1919
1911
1911
1901
1897
1883
1881
1879
1879
1865
1868
1871
1865
1863
1876
1877
1883
1887
1897
1919
1944
1959
1992
2019
2037
2063
2086
2099
2107
2095
2093
2086
2071
2039
2025
1998
1971
1948
1939
1914
1903
1884
1879
1880
1883
1881
1895
1900
1909
1915
1932
1946
1955
1949
1951
1959
1959
1949
1951
1933
1929
1919
1916
1915
1909
1895
1884
1885
1883
1875
1881
1878
1869
1867
1875
1877
1881
1881
1887
1911
1939
1951
1993
2024
2055
2079
2108
2123
2133
2127
2121
2117
2101
2071
2057
2028
1998
1967
1955
1935
1915
1899
1887
1887
1886
1883
1896
1903
1908
1912
1935
1943
1945
1942
1947
1949
1947
1935
1935
1929
1911
1901
1900
1893
1890
1879
1877
1878
1877
1869
1875
1869
1867
1865
1875
1875
1875
1866
1867
1877
1883
1891
1915
1943
1971
2003
2042
2079
2109
2127
2141
2155
2155
2141
2137
2119
2088
2063
2037
2015
1993
1965
1945
1936
1919
1907
1907
1903
1899
1901
1915
1926
1929
1929
1941
1952
1957
1951
1961
1959
1949
1941
1942
1933
1929
1911
1903
1899
1895
1884
1883
1881
1874
1864
1869
1867
1867
1861
1861
1869
1867
1863
1875
1879
1879
1877
1887
1887
1891
1879
1880
1881
1881
1877
1893
1909
1927
1955
1997
2035
2073
2099
2126
2148
2159
2155
2157
2148
2126
2101
2087
2059
2028
1995
1973
1957
1941
1911
1912
1906
1897
1895
1904
1911
1919
1927
1935
1947
1956
1957
1965
1967
1960
1957
1958
1948
1943
1925
1911
1911
1903
1885
1887
1881
1871
1865
1870
1868
1867
1863
1855
1867
1867
1864
1875
1877
1871
1867
1879
1875
1877
1867
1869
1873
1877
1866
1875
1874
1867
1865
1868
1868
1866
1853
1853
1861
1855
1847
1855
1854
1855
1875
1901
1931
1967
2005
2041
2089
2125
2143
2167
2171
2166
2154
2150
2138
2105
2073
2041
2021
1993
1961
1946
1929
1907
1895
1895
1893
1891
1889
1897
1911
1919
1930
1947
1959
1965
1965
1975
1975
1972
1961
1955
1951
1945
1920
1927
1909
1895
1884
1883
1871
1865
1853
1851
1862
1861
1855
1863
1867
1868
1863
1869
1871
1877
1869
1873
1879
1883
1879
1890
1887
1880
1877
1881
1882
1879
1869
1868
1870
1867
1853
1863
1855
1853
1845
1863
1871
1885
1904
1937
1975
2015
2043
2091
2121
2139
2149
2165
2159
2151
2123
2104
2084
2055
2013
1994
1963
1934
1909
1897
1885
1879
1865
1868
1881
1891
1893
1907
1925
1935
1942
1959
1962
1965
1960
1959
1957
1951
1935
1933
1927
1909
1895
1895
1887
1879
1863
1861
1867
1863
1855
1869
1871
1866
1865
1879
1881
1885
1880
1885
1893
1896
1891
1897
1894
1887
1883
1889
1887
1885
1873
1871
1877
1877
1867
1873
1870
1875
1885
1909
1933
1961
1990
2023
2059
2084
2096
2120
2125
2121
2111
2108
2093
2071
2035
2009
1991
1964
1933
1915
1896
1879
1870
1875
1870
1877
1877
1885
1911
1931
1939
1960
1963
1975
1977
1989
1979
1979
1967
1959
1961
1949
1931
1931
1917
1901
1895
1893
1890
1883
1870
1867
1875
1874
1868
1876
1877
1873
1871
1881
1883
1885
1880
1887
1893
1895
1895
1903
1917
1929
1947
1977
2007
2026
2053
2074
2094
2105
2105
2107
2102
2083
2066
2052
2027
2003
1974
1951
1935
1917
1890
1885
1879
1869
1869
1882
1893
1903
1910
1918
1943
1955
1959
1973
1977
1976
1972
1980
1976
1967
1957
1948
1942
1935
1917
1917
1907
1895
1892
1887
1881
1877
1867
1869
1871
1875
1869
1879
1883
1879
1887
1907
1919
1945
1963
1997
2039
2077
2103
2135
2152
2159
2162
2163
2157
2141
2116
2089
2069
2037
1999
1980
1959
1932
1912
1903
1896
1891
1883
1891
1904
1928
1919
1944
1961
1967
1975
1993
1997
2003
1993
1990
1989
1992
1965
1961
1949
1933
1925
1925
1916
1909
1896
1893
1895
1893
1885
1889
1887
1883
1881
1893
1895
1900
1903
1920
1955
1991
2024
2077
2117
2151
2183
2216
2233
2239
2230
2219
2207
2183
2143
2119
2088
2053
2014
1997
1975
1956
1929
1917
1917
1918
1915
1935
1947
1951
1964
1983
1997
2008
2005
2009
2019
2013
2003
1999
1995
1977
1963
1959
1951
1935
1915
1911
1910
1901
1885
1891
1885
1879
1880
1887
1892
1891
1885
1892
1896
1900
1900
1915
1920
1933
1958
1993
2025
2069
2096
2137
2175
2200
2211
2223
2221
2207
2187
2173
2153
2123
2083
2057
2029
2007
1976
1964
1944
1931
1918
1919
1927
1931
1929
1941
1955
1971
1973
1991
2003
1999
2002
2008
2003
1995
1979
1973
1963
1955
1939
1932
1917
1902
1889
1891
1885
1879
1875
1876
1881
1879
1877
1883
1885
1883
1880
1896
1897
1899
1895
1897
1903
1913
1918
1947
1973
2005
2038
2085
2119
2151
2172
2193
2205
2207
2197
2187
2165
2137
2106
2079
2046
2021
1983
1965
1944
1928
1902
1903
1899
1895
1901
1917
1930
1941
1947
1960
1973
1989
1983
1993
1993
1980
1973
1967
1957
1947
1927
1915
1914
1904
1887
1885
1881
1875
1869
1875
1875
1875
1865
1869
1879
1883
1880
1891
1891
1885
1885
1893
1893
1887
1883
1883
1887
1887
1879
1885
1887
1885
1892
1913
1949
1979
2012
2055
2099
2129
2151
2169
2183
2171
2163
2153
2135
2103
2065
2031
2005
1975
1941
1925
1902
1885
1871
1877
1881
1881
1883
1894
1914
1929
1935
1959
1967
1972
1973
1983
1981
1977
1963
1956
1947
1947
1914
1909
1898
1885
1869
1870
1867
1865
1849
1851
1863
1869
1855
1871
1875
1869
1871
1882
1895
1891
1885
1887
1894
1891
1882
1887
1885
1883
1883
1897
1915
1935
1955
1991
2029
2069
2095
2133
2153
2158
2157
2163
2150
2133
2099
2076
2055
2019
1977
1951
1928
1897
1877
1871
1867
1866
1863
1875
1892
1907
1912
1939
1950
1959
1966
1980
1982
1983
1973
1967
1961
1950
1931
1929
1915
1901
1891
1887
1883
1875
1863
1861
1865
1863
1851
1861
1865
1861
1853
1869
1871
1871
1867
1876
1893
1907
1926
1959
1992
2021
2057
2092
2120
2135
2139
2141
2141
2132
2104
2085
2059
2021
1990
1967
1939
1909
1881
1863
1853
1847
1835
1847
1856
1865
1879
1901
1917
1933
1940
1949
1963
1965
1957
1961
1951
1939
1927
1925
1911
1899
1879
1868
1868
1855
1843
1845
1847
1843
1837
1849
1849
1849
1847
1847
1863
1865
1861
1871
1877
1883
1897
1927
1959
1993
2021
2067
2105
2138
2156
2181
2187
2179
2160
2151
2125
2099
2059
2021
1998
1965
1931
1913
1896
1875
1864
1863
1863
1865
1863
1873
1891
1903
1909
1931
1943
1945
1949
1958
1959
1957
1944
1939
1931
1919
1900
1899
1891
1876
1863
1864
1855
1851
1843
1843
1847
1847
1837
1847
1851
1847
1847
1855
1854
1852
1853
1863
1877
1894
1908
1947
1976
2011
2044
2091
2120
2143
2151
2155
2163
2154
2132
2117
2092
2044
2012
1993
1961
1938
1903
1885
1875
1863
1846
1850
1853
1853
1863
1883
1898
1907
1912
1927
1935
1943
1937
1943
1940
1929
1917
1913
1901
1887
1875
1865
1863
1849
1835
1837
1835
1830
1824
1831
1833
1832
1829
1828
1839
1843
1837
1849
1853
1849
1850
1861
1861
1865
1863
1869
1884
1903
1919
1957
1989
2019
2053
2090
2109
2127
2133
2133
2133
2121
2092
2075
2043
2011
1979
1960
1933
1907
1881
1867
1861
1849
1839
1845
1853
1855
1869
1892
1907
1917
1915
1930
1941
1943
1934
1935
1932
1915
1911
1909
1897
1887
1867
1853
1851
1843
1823
1833
1827
1822
1819
1833
1837
1839
1839
1844
1852
1855
1853
1864
1869
1863
1865
1868
1871
1870
1863
1863
1875
1885
1897
1929
1958
1988
2015
2059
2079
2104
2111
2120
2124
2117
2091
2079
2056
2021
1993
1965
1941
1911
1879
1861
1848
1836
1824
1835
1843
1845
1855
1880
1893
1907
1913
1926
1941
1945
1939
1941
1939
1939
1916
1916
1910
1899
1879
1867
1867
1855
1844
1847
1842
1833
1829
1837
1843
1839
1833
1836
1845
1847
1839
1849
1853
1847
1847
1853
1851
1855
1851
1864
1881
1901
1917
1957
1984
2013
2039
2075
2101
2115
2111
2116
2117
2095
2071
2057
2025
1991
1957
1935
1909
1885
1854
1842
1837
1835
1829
1843
1853
1863
1877
1899
1915
1927
1928
1943
1949
1951
1939
1947
1945
1929
1915
1913
1903
1895
1878
1868
1865
1855
1847
1846
1844
1835
1833
1843
1843
1843
1839
1845
1853
1860
1851
1865
1867
1861
1863
1869
1879
1893
1901
1929
1961
1989
2012
2053
2079
2095
2105
2122
2119
2111
2090
2071
2044
2020
1982
1960
1931
1899
1873
1862
1845
1833
1821
1829
1835
1847
1853
1875
1891
1900
1915
1935
1946
1951
1947
1951
1952
1960
1941
1935
1927
1911
1902
1899
1891
1881
1867
1866
1868
1867
1855
1865
1863
1853
1851
1855
1855
1860
1849
1851
1865
1870
1877
1899
1925
1941
1975
2011
2043
2074
2090
2104
2119
2117
2103
2093
2073
2043
2014
1993
1967
1944
1910
1892
1881
1869
1847
1852
1853
1865
1871
1894
1911
1925
1920
1942
1960
1967
1963
1971
1963
1947
1933
1927
1904
1891
1865
1851
1839
1831
1813
1814
1812
1805
1803
1813
1819
1823
1827
1835
1851
1867
1879
1911
1945
1975
2013
2063
2099
2132
2149
2170
2189
2189
2173
2165
2143
2109
2077
2055
2013
1978
1944
1913
1895
1876
1851
1849
1865
1851
1863
1879
1899
1915
1928
1943
1961
1975
1973
1979
1979
1974
1965
1967
1962
1949
1931
1915
1911
1902
1884
1885
1879
1878
1855
1861
1861
1853
1851
1862
1885
1901
1918
1963
2005
2040
2088
2140
2173
2207
2218
2229
2231
2218
2195
2172
2139
2102
2068
2037
1999
1967
1935
1917
1901
1895
1883
1891
1896
1901
1914
1943
1964
1981
1993
2005
2027
2031
2017
2021
2009
1995
1977
1975
1963
1947
1926
1913
1907
1897
1880
1881
1875
1867
1863
1867
1864
1867
1866
1879
1909
1943
1975
2029
2083
2127
2173
2217
2245
2261
2264
2259
2253
2230
2197
2169
2138
2095
2057
2026
1996
1965
1935
1915
1907
1895
1883
1886
1891
1893
1898
1913
1927
1931
1931
1935
1943
1941
1933
1938
1931
1912
1900
1899
1891
1879
1863
1853
1851
1845
1835
1845
1845
1839
1837
1849
1853
1855
1851
1853
1863
1867
1871
1895
1925
1957
2005
2069
2123
2183
2223
2268
2308
2326
2324
2328
2313
2281
2248
2218
2182
2136
2090
2045
2021
1991
1957
1945
1933
1917
1913
1925
1933
1944
1947
1963
1979
1994
1991
2007
2005
2005
1993
1994
1989
1972
1951
1941
1934
1925
1899
1899
1887
1880
1869
1875
1867
1866
1853
1851
1853
1853
1851
1855
1861
1861
1855
1868
1875
1879
1875
1883
1894
1901
1896
1907
1909
1901
1897
1901
1898
1893
1879
1877
1885
1893
1909
1947
1991
2037
2096
2167
2221
2275
2303
2333
2351
2349
2329
2311
2277
2231
2187
2151
2101
2067
2019
1981
1957
1933
1908
1899
1896
1893
1896
1915
1932
1947
1957
1971
1989
1995
1995
2005
2003
1995
1981
1976
1963
1951
1929
1911
1909
1893
1871
1871
1863
1848
1845
1847
1848
1845
1839
1847
1853
1861
1852
1865
1871
1871
1873
1882
1887
1897
1892
1899
1909
1912
1904
1913
1915
1909
1900
1901
1895
1883
1867
1863
1861
1851
1844
1852
1871
1887
1919
1976
2029
2087
2140
2191
2239
2275
2284
2295
2285
2260
2227
2199
2153
2111
2063
2013
1977
1941
1899
1881
1863
1845
1839
1851
1863
1875
1883
1901
1925
1941
1947
1966
1974
1973
1971
1973
1962
1951
1932
1915
1911
1897
1879
1870
1855
1846
1832
1831
1829
1828
1817
1820
1831
1831
1829
1839
1845
1840
1845
1853
1865
1868
1866
1869
1878
1880
1871
1877
1870
1867
1853
1855
1861
1853
1848
1861
1880
1903
1927
1971
2009
2058
2096
2143
2175
2201
2206
2205
2202
2186
2143
2119
2079
2035
1993
1961
1929
1896
1863
1840
1832
1831
1827
1839
1851
1867
1882
1908
1929
1945
1949
1971
1975
1977
1967
1967
1962
1950
1944
1945
1941
1933
1917
1913
1911
1903
1891
1895
1886
1876
1871
1881
1883
1879
1876
1873
1881
1880
1875
1876
1879
1870
1865
1871
1871
1869
1867
1869
1885
1903
1927
1965
2004
2039
2079
2123
2151
2171
2183
2183
2184
2167
2137
2115
2085
2042
2006
1979
1949
1915
1883
1861
1849
1839
1832
1843
1849
1861
1874
1894
1909
1925
1929
1940
1956
1959
1951
1961
1956
1941
1929
1919
1911
1899
1878
1867
1855
1848
1833
1831
1831
1821
1817
1819
1827
1829
1822
1823
1833
1836
1833
1837
1840
1839
1843
1851
1854
1855
1853
1862
1871
1885
1901
1937
1972
2009
2057
2102
2135
2165
2185
2197
2201
2197
2169
2155
2131
2099
2055
2029
1996
1963
1927
1903
1887
1875
1851
1851
1853
1852
1864
1881
1895
1908
1917
1931
1948
1957
1952
1959
1957
1946
1939
1940
1927
1912
1896
1887
1881
1874
1862
1863
1853
1846
1837
1845
1837
1835
1831
1833
1835
1835
1835
1847
1848
1848
1849
1855
1855
1860
1849
1851
1853
1849
1840
1849
1855
1863
1883
1915
1951
1993
2030
2077
2119
2151
2168
2189
2199
2187
2169
2155
2131
2099
2063
2027
2004
1973
1941
1919
1901
1883
1871
1869
1867
1870
1871
1883
1903
1919
1930
1945
1959
1957
1961
1971
1967
1962
1949
1942
1939
1931
1910
1903
1893
1878
1865
1865
1855
1848
1843
1839
1843
1845
1837
1843
1846
1845
1839
1849
1848
1854
1849
1852
1870
1869
1864
1867
1871
1869
1875
1894
1913
1943
1971
2009
2059
2093
2119
2149
2153
2159
2163
2151
2135
2111
2078
2051
2023
1991
1955
1931
1903
1878
1855
1861
1851
1849
1843
1861
1879
1893
1903
1925
1939
1947
1951
1965
1968
1967
1964
1957
1950
1945
1932
1929
1914
1900
1891
1886
1878
1875
1855
1851
1851
1849
1845
1849
1849
1849
1848
1855
1863
1863
1852
1853
1867
1869
1864
1875
1877
1880
1895
1913
1943
1972
2002
2035
2078
2107
2123
2147
2151
2141
2135
2125
2105
2078
2040
2012
1993
1967
1931
1915
1895
1875
1864
1862
1865
1866
1869
1881
1901
1919
1933
1949
1965
1966
1973
1981
1981
1976
1967
1961
1957
1947
1931
1925
1913
1897
1887
1883
1879
1870
1855
1853
1861
1850
1844
1849
1853
1848
1849
1860
1865
1867
1871
1882
1903
1929
1956
1992
2029
2059
2093
2127
2151
2165
2167
2159
2156
2141
2110
2089
2059
2021
1989
1959
1933
1901
1875
1855
1850
1847
1839
1855
1867
1876
1887
1913
1933
1945
1955
1967
1981
1990
1981
1983
1979
1967
1958
1951
1941
1929
1907
1897
1893
1887
1875
1879
1871
1863
1854
1864
1861
1863
1855
1864
1875
1885
1897
1930
1959
1993
2029
2079
2118
2152
2171
2187
2201
2199
2181
2165
2139
2106
2071
2045
2013
1979
1947
1919
1903
1891
1869
1875
1877
1877
1883
1903
1916
1935
1941
1957
1975
1981
1980
1995
1993
1983
1978
1976
1965
1955
1935
1928
1925
1910
1893
1891
1881
1869
1864
1869
1863
1863
1853
1855
1869
1881
1885
1915
1947
1980
2027
2085
2136
2181
2208
2237
2263
2267
2255
2249
2223
2189
2153
2125
2087
2045
2005
1973
1950
1931
1901
1897
1893
1885
1891
1908
1919
1935
1941
1951
1975
1983
1981
1997
1995
1995
1983
1981
1973
1959
1943
1931
1928
1915
1897
1886
1883
1875
1865
1867
1868
1867
1855
1863
1871
1871
1863
1879
1883
1891
1912
1949
1982
2030
2077
2131
2183
2227
2251
2281
2291
2285
2275
2259
2231
2195
2151
2117
2085
2045
2005
1981
1951
1929
1907
1903
1899
1901
1901
1911
1931
1944
1951
1967
1979
1980
1988
1998
1998
1997
1990
1967
1961
1949
1931
1927
1911
1893
1879
1879
1869
1867
1853
1847
1852
1855
1847
1861
1863
1855
1856
1868
1875
1875
1867
1865
1874
1876
1871
1885
1901
1917
1949
1991
2035
2087
2129
2169
2207
2235
2247
2255
2251
2233
2201
2181
2147
2109
2068
2029
2005
1972
1933
1917
1901
1885
1875
1880
1883
1894
1896
1909
1933
1946
1957
1977
1989
1983
1981
1983
1978
1967
1949
1933
1925
1911
1893
1881
1869
1852
1839
1839
1833
1831
1822
1822
1833
1831
1832
1839
1845
1843
1840
1853
1853
1864
1855
1855
1866
1863
1853
1855
1853
1844
1835
1843
1845
1860
1871
1907
1948
1995
2037
2099
2141
2169
2199
2219
2223
2217
2195
2171
2147
2111
2071
2037
1999
1961
1928
1903
1881
1867
1844
1840
1847
1855
1854
1876
1887
1897
1909
1931
1943
1949
1951
1951
1952
1943
1927
1919
1908
1892
1878
1868
1863
1848
1837
1832
1831
1823
1816
1820
1815
1811
1807
1819
1821
1831
1828
1833
1845
1849
1848
1851
1859
1851
1849
1853
1852
1849
1838
1839
1839
1843
1845
1869
1893
1927
1964
2015
2065
2103
2135
2161
2186
2191
2181
2169
2153
2123
2095
2067
2024
1991
1944
1912
1891
1868
1839
1837
1833
1829
1834
1849
1869
1885
1897
1915
1939
1945
1947
1959
1959
1948
1942
1943
1933
1927
1911
1897
1893
1879
1862
1853
1839
1827
1815
1817
1815
1813
1805
1807
1813
1816
1812
1823
1831
1829
1831
1839
1839
1845
1839
1842
1847
1849
1837
1840
1837
1832
1833
1845
1863
1881
1903
1945
1981
2021
2047
2077
2104
2107
2106
2107
2092
2073
2031
2005
1975
1943
1903
1881
1852
1829
1811
1809
1801
1803
1805
1815
1833
1851
1869
1891
1904
1912
1919
1931
1933
1931
1919
1913
1911
1902
1886
1882
1871
1851
1839
1835
1831
1823
1814
1811
1816
1807
1805
1814
1815
1811
1813
1819
1822
1829
1823
1831
1839
1844
1845
1864
1879
1897
1927
1967
2007
2042
2074
2102
2133
2142
2139
2137
2123
2095
2069
2041
2009
1975
1935
1902
1883
1855
1831
1821
1811
1801
1804
1823
1835
1851
1871
1892
1913
1934
1941
1956
1965
1955
1948
1947
1927
1917
1901
1891
1881
1871
1853
1849
1837
1827
1817
1819
1818
1817
1811
1813
1819
1823
1818
1829
1834
1838
1851
1885
1919
1963
2008
2057
2109
2154
2184
2211
2227
2219
2207
2196
2165
2131
2087
2044
2012
1973
1926
1900
1869
1837
1819
1819
1817
1823
1832
1846
1877
1899
1913
1941
1952
1962
1966
1979
1978
1977
1960
1949
1937
1915
1893
1881
1866
1847
1837
1834
1831
1821
1816
1813
1817
1817
1813
1820
1823
1824
1837
1867
1895
1939
1981
2037
2105
2165
2207
2253
2281
2291
2285
2283
2258
2227
2174
2133
2095
2053
1997
1961
1919
1887
1864
1851
1836
1839
1835
1846
1867
1886
1899
1919
1943
1945
1957
1973
1976
1971
1963
1957
1955
1943
1919
1913
1899
1878
1865
1863
1848
1839
1827
1827
1827
1827
1819
1829
1833
1830
1831
1839
1851
1867
1885
1919
1973
2029
2087
2153
2211
2261
2295
2325
2335
2331
2303
2284
2247
2211
2155
2116
2073
2023
1980
1951
1916
1895
1867
1855
1855
1855
1853
1874
1885
1895
1909
1929
1946
1951
1952
1959
1964
1965
1949
1948
1938
1919
1901
1895
1881
1871
1851
1839
1835
1833
1823
1831
1832
1828
1833
1840
1844
1847
1839
1845
1851
1853
1849
1853
1863
1863
1869
1895
1931
1971
2013
2076
2139
2197
2245
2284
2315
2325
2323
2315
2291
2253
2205
2159
2123
2079
2029
1994
1959
1925
1896
1881
1868
1855
1847
1850
1855
1877
1883
1909
1927
1930
1944
1960
1963
1965
1957
1949
1947
1935
1914
1909
1895
1875
1863
1853
1847
1828
1817
1807
1815
1813
1810
1815
1819
1816
1815
1827
1829
1837
1832
1839
1849
1852
1849
1862
1862
1855
1851
1855
1854
1853
1843
1835
1836
1833
1821
1829
1833
1837
1855
1898
1945
2001
2065
2125
2195
2251
2286
2325
2339
2333
2317
2295
2259
2211
2152
2103
2063
2012
1962
1932
1899
1867
1847
1843
1839
1849
1848
1863
1881
1899
1910
1932
1945
1951
1955
1965
1963
1959
1945
1933
1926
1911
1890
1879
1865
1845
1831
1824
1816
1812
1800
1797
1801
1803
1799
1815
1815
1813
1817
1823
1831
1833
1829
1835
1845
1849
1845
1848
1845
1837
1835
1839
1839
1839
1835
1827
1827
1821
1815
1815
1813
1804
1807
1821
1837
1865
1897
1949
2012
2084
2136
2199
2247
2276
2291
2301
2295
2271
2235
2196
2155
2103
2055
2011
1961
1917
1879
1851
1831
1819
1809
1813
1829
1845
1855
1883
1907
1917
1939
1957
1967
1973
1965
1964
1961
1951
1931
1919
1907
1886
1869
1869
1838
1835
1821
1815
1815
1811
1803
1809
1807
1805
1805
1817
1819
1823
1823
1831
1839
1846
1845
1854
1861
1860
1855
1862
1853
1855
1845
1839
1838
1835
1821
1827
1821
1817
1823
1843
1865
1899
1934
1983
2037
2091
2123
2159
2183
2186
2181
2173
2153
2123
2085
2043
2012
1967
1919
1895
1864
1831
1808
1800
1789
1789
1791
1812
1838
1865
1880
1902
1919
1932
1943
1955
1956
1957
1944
1935
1930
1915
1895
1885
1873
1851
1837
1836
1824
1818
1811
1805
1807
1807
1803
1815
1817
1816
1819
1830
1835
1838
1831
1834
1843
1843
1839
1850
1864
1877
1899
1943
1983
2028
2069
2107
2151
2159
2169
2181
2167
2139
2119
2089
2058
2015
1973
1934
1900
1865
1831
1815
1801
1787
1784
1801
1815
1831
1847
1869
1897
1909
1930
1949
1960
1961
1961
1967
1959
1949
1929
1913
1901
1891
1865
1861
1847
1831
1821
1819
1816
1811
1803
1805
1807
1805
1803
1811
1817
1815
1818
1837
1853
1879
1911
1957
2013
2073
2121
2183
2223
2249
2269
2283
2277
2259
2221
2189
2151
2108
2055
2023
1967
1919
1885
1863
1837
1824
1809
1815
1823
1834
1846
1874
1896
1913
1933
1951
1965
1974
1975
1975
1978
1971
1955
1949
1933
1912
1893
1885
1871
1863
1837
1829
1829
1822
1819
1823
1822
1817
1816
1821
1824
1827
1830
1845
1871
1903
1942
1999
2059
2115
2169
2227
2271
2300
2314
2327
2318
2293
2253
2219
2168
2112
2060
2019
1968
1928
1885
1861
1843
1831
1818
1823
1831
1837
1855
1887
1907
1931
1947
1963
1983
1994
1991
1997
1992
1971
1959
1952
1940
1919
1896
1881
1871
1861
1839
1837
1831
1822
1819
1823
1823
1822
1819
1823
1824
1843
1839
1861
1881
1901
1940
1995
2045
2107
2157
2213
2263
2297
2316
2332
2327
2297
2277
2236
2195
2146
2087
2035
1993
1949
1903
1881
1855
1833
1820
1831
1833
1849
1861
1880
1909
1932
1949
1973
1983
1990
1992
1997
1994
1983
1965
1957
1945
1932
1909
1899
1887
1869
1855
1855
1845
1849
1831
1823
1829
1832
1822
1833
1837
1838
1837
1851
1865
1883
1903
1943
1996
2055
2107
2169
2223
2267
2295
2322
2328
2318
2285
2259
2221
2181
2121
2076
2023
1967
1928
1896
1866
1837
1816
1815
1819
1829
1837
1865
1887
1902
1925
1951
1964
1980
1982
1989
1993
1988
1966
1963
1947
1929
1909
1900
1887
1875
1851
1845
1839
1833
1819
1827
1823
1821
1821
1831
1833
1837
1832
1835
1839
1847
1844
1866
1885
1903
1944
1995
2043
2104
2147
2194
2231
2253
2262
2265
2249
2216
2173
2141
2099
2045
1995
1947
1915
1877
1837
1821
1807
1801
1801
1817
1836
1863
1881
1910
1944
1967
1981
2003
2011
2005
2004
2004
1993
1979
1960
1944
1935
1915
1895
1891
1877
1864
1853
1853
1847
1845
1835
1833
1837
1837
1829
1836
1837
1843
1851
1881
1904
1944
1981
2034
2087
2137
2171
2215
2237
2248
2239
2235
2215
2187
2136
2091
2045
2002
1945
1903
1867
1829
1799
1791
1785
1789
1797
1815
1839
1866
1886
1915
1941
1958
1967
1988
1992
1993
1981
1975
1965
1949
1929
1918
1904
1883
1871
1864
1851
1843
1829
1821
1827
1823
1817
1823
1828
1831
1839
1865
1892
1928
1973
2028
2095
2152
2197
2247
2275
2286
2287
2285
2265
2231
2188
2149
2101
2053
1994
1957
1909
1868
1835
1822
1813
1807
1805
1820
1845
1867
1890
1917
1947
1961
1978
1995
2003
2003
1991
1989
1993
1966
1947
1939
1927
1903
1887
1879
1863
1851
1839
1832
1833
1831
1823
1832
1834
1837
1845
1877
1907
1949
1998
2059
2120
2181
2221
2268
2297
2309
2300
2295
2269
2230
2183
2135
2091
2039
1981
1949
1902
1866
1837
1827
1817
1815
1817
1837
1861
1885
1903
1935
1960
1974
1983
2005
2009
2007
1995
1983
1975
1964
1945
1933
1913
1896
1879
1868
1853
1843
1828
1823
1827
1821
1818
1831
1843
1854
1880
1925
1964
2021
2075
2133
2191
2235
2267
2295
2309
2296
2271
2255
2215
2171
2117
2071
2023
1971
1919
1887
1853
1827
1810
1811
1813
1820
1830
1849
1881
1903
1916
1946
1960
1971
1976
1981
1977
1973
1956
1941
1927
1911
1889
1877
1865
1844
1831
1829
1820
1815
1804
1803
1812
1816
1822
1847
1877
1907
1949
2011
2071
2129
2171
2213
2250
2265
2266
2262
2239
2204
2165
2130
2084
2029
1976
1933
1899
1868
1834
1821
1812
1813
1819
1831
1850
1873
1886
1909
1935
1955
1961
1973
1977
1971
1963
1963
1951
1939
1917
1898
1890
1876
1855
1851
1840
1823
1813
1815
1810
1806
1803
1811
1831
1855
1887
1939
1993
2043
2095
2153
2188
2219
2227
2231
2223
2205
2169
2139
2098
2040
1993
1951
1911
1875
1835
1812
1803
1799
1790
1807
1823
1837
1861
1887
1909
1927
1941
1949
1963
1963
1955
1955
1943
1929
1913
1907
1893
1879
1855
1845
1837
1827
1812
1814
1807
1797
1789
1803
1809
1820
1837
1871
1911
1963
2009
2071
2120
2157
2185
2212
2217
2211
2188
2157
2131
2091
2031
2001
1949
1903
1867
1843
1821
1809
1787
1789
1801
1816
1832
1863
1889
1904
1928
1949
1964
1975
1967
1965
1972
1961
1949
1943
1929
1907
1893
1881
1867
1849
1833
1823
1819
1815
1804
1809
1813
1809
1812
1828
1843
1868
1896
1942
1994
2040
2085
2133
2168
2190
2200
2206
2197
2171
2135
2095
2065
2019
1963
1927
1883
1843
1812
1798
1781
1775
1775
1789
1813
1835
1853
1890
1911
1929
1939
1956
1965
1966
1957
1947
1945
1935
1915
1909
1895
1875
1854
1847
1836
1828
1813
1807
1817
1812
1807
1813
1818
1823
1839
1874
1909
1951
1991
2039
2089
2131
2153
2175
2185
2173
2159
2147
2116
2076
2027
1982
1948
1903
1864
1837
1813
1788
1772
1779
1783
1797
1807
1829
1861
1887
1903
1931
1945
1951
1951
1958
1955
1949
1935
1925
1916
1903
1884
1877
1864
1843
1831
1831
1821
1821
1812
1812
1823
1837
1851
1887
1932
1973
2022
2083
2133
2171
2197
2219
2231
2227
2205
2188
2151
2105
2063
2019
1975
1929
1883
1849
1829
1815
1797
1803
1815
1817
1833
1867
1887
1909
1928
1944
1963
1973
1975
1981
1977
1966
1951
1945
1933
1912
1892
1876
1871
1853
1837
1833
1829
1819
1815
1823
1836
1853
1880
1919
1979
2037
2091
2156
2205
2239
2269
2287
2285
2276
2247
2212
2173
2133
2077
2026
1979
1931
1893
1869
1845
1827
1815
1819
1833
1849
1869
1897
1918
1940
1949
1971
1982
1983
1979
1975
1971
1961
1940
1932
1913
1893
1878
1871
1854
1846
1831
1823
1823
1819
1815
1823
1830
1843
1869
1915
1967
2032
2095
2164
2231
2283
2322
2343
2355
2343
2319
2293
2252
2202
2141
2094
2055
2003
1950
1918
1891
1861
1839
1840
1837
1845
1852
1866
1896
1908
1916
1939
1949
1951
1957
1961
1957
1948
1935
1919
1913
1897
1879
1869
1861
1839
1829
1828
1820
1819
1811
1809
1815
1817
1815
1824
1829
1833
1833
1844
1847
1855
1867
1901
1949
2002
2061
2131
2191
2247
2291
2331
2359
2363
2347
2328
2298
2259
2205
2163
2117
2065
2012
1977
1943
1912
1879
1864
1854
1855
1851
1869
1884
1899
1911
1935
1950
1961
1963
1967
1975
1967
1957
1949
1939
1915
1900
1893
1880
1864
1845
1835
1833
1821
1815
1818
1819
1817
1817
1828
1831
1833
1833
1839
1847
1852
1853
1863
1864
1860
1853
1861
1853
1851
1843
1839
1843
1847
1828
1823
1823
1815
1813
1821
1834
1853
1890
1940
2005
2079
2149
2219
2283
2331
2361
2386
2388
2373
2335
2299
2263
2213
2151
2106
2057
2005
1960
1929
1899
1875
1851
1845
1847
1852
1853
1879
1893
1907
1919
1942
1955
1961
1957
1963
1957
1947
1931
1927
1915
1891
1879
1869
1849
1843
1823
1817
1813
1811
1799
1807
1807
1805
1810
1816
1821
1827
1822
1829
1839
1845
1839
1849
1851
1843
1837
1845
1840
1838
1833
1831
1833
1833
1821
1823
1821
1815
1806
1811
1807
1805
1805
1817
1843
1879
1915
1979
2043
2107
2167
2223
2267
2295
2299
2296
2285
2263
2215
2175
2131
2072
2015
1976
1931
1891
1849
1827
1817
1805
1801
1807
1815
1823
1843
1867
1887
1903
1913
1933
1942
1947
1939
1939
1927
1904
1893
1885
1873
1853
1836
1823
1820
1811
1799
1800
1800
1789
1788
1800
1801
1807
1803
1807
1819
1820
1821
1829
1834
1833
1839
1847
1845
1845
1844
1839
1843
1846
1831
1833
1831
1818
1811
1815
1815
1818
1829
1850
1891
1933
1977
2031
2089
2124
2157
2189
2205
2205
2187
2164
2139
2105
2057
2021
1976
1931
1885
1855
1829
1811
1788
1784
1789
1803
1810
1831
1849
1866
1881
1907
1925
1932
1930
1933
1935
1929
1913
1909
1897
1881
1864
1851
1843
1831
1815
1807
1805
1803
1797
1799
1801
1799
1797
1806
1809
1817
1816
1824
1832
1837
1835
1843
1847
1839
1835
1837
1835
1829
1821
1820
1829
1834
1839
1875
1903
1931
1967
2015
2061
2093
2119
2135
2153
2153
2139
2125
2099
2061
2020
1989
1949
1911
1875
1845
1823
1810
1789
1791
1799
1800
1811
1829
1849
1869
1879
1895
1912
1925
1925
1933
1929
1917
1911
1909
1899
1887
1870
1866
1852
1844
1828
1827
1819
1815
1810
1815
1815
1819
1813
1815
1823
1822
1817
1831
1839
1840
1860
1885
1915
1951
1989
2030
2077
2120
2141
2173
2183
2181
2171
2157
2133
2096
2057
2013
1981
1947
1903
1877
1849
1821
1806
1805
1805
1807
1812
1831
1848
1870
1886
1907
1927
1933
1944
1955
1956
1949
1939
1931
1917
1915
1897
1894
1881
1864
1851
1845
1839
1831
1821
1819
1820
1820
1815
1822
1823
1826
1832
1845
1865
1894
1919
1974
2025
2085
2135
2190
2233
2260
2279
2293
2287
2267
2231
2199
2159
2118
2065
2025
1984
1942
1903
1885
1864
1852
1843
1847
1863
1877
1885
1913
1933
1947
1963
1983
1998
2004
1996
1992
1991
1977
1959
1949
1933
1913
1893
1885
1875
1861
1843
1835
1834
1833
1829
1833
1838
1837
1834
1843
1847
1851
1853
1863
1886
1916
1948
2007
2063
2111
2171
2221
2270
2301
2317
2327
2318
2294
2261
2228
2185
2133
2086
2040
2003
1963
1918
1895
1879
1867
1850
1863
1867
1876
1893
1917
1941
1960
1971
1979
1995
1997
1995
1993
1983
1966
1949
1939
1926
1909
1891
1877
1869
1861
1844
1847
1843
1835
1833
1839
1843
1845
1843
1845
1851
1855
1851
1863
1869
1881
1894
1931
1967
2013
2067
2119
2173
2221
2252
2281
2291
2285
2271
2259
2220
2185
2131
2088
2043
1999
1951
1925
1891
1863
1839
1839
1837
1844
1847
1866
1889
1907
1925
1949
1965
1975
1975
1981
1981
1979
1963
1949
1945
1929
1911
1899
1883
1867
1849
1848
1845
1835
1827
1819
1821
1821
1817
1828
1831
1830
1833
1839
1847
1849
1849
1851
1862
1867
1881
1907
1941
1974
2020
2079
2134
2183
2218
2252
2268
2271
2253
2235
2205
2163
2117
2079
2030
1989
1940
1900
1871
1843
1817
1813
1810
1815
1823
1849
1871
1894
1912
1939
1959
1973
1976
1983
1981
1971
1959
1951
1939
1919
1897
1885
1875
1863
1843
1837
1833
1822
1817
1819
1817
1815
1806
1810
1816
1819
1815
1834
1831
1835
1849
1879
1908
1946
1989
2037
2093
2141
2172
2205
2219
2217
2205
2199
2169
2135
2087
2045
2003
1961
1911
1879
1845
1815
1799
1797
1797
1807
1817
1835
1867
1891
1907
1933
1951
1961
1967
1977
1977
1971
1957
1943
1939
1925
1903
1896
1883
1867
1851
1850
1845
1833
1818
1815
1817
1817
1812
1819
1823
1823
1837
1867
1900
1943
1983
2037
2093
2148
2187
2224
2249
2255
2251
2237
2208
2173
2127
2085
2039
1994
1941
1909
1877
1839
1818
1814
1811
1817
1819
1837
1864
1887
1901
1933
1948
1960
1968
1981
1979
1974
1959
1950
1937
1925
1900
1893
1877
1855
1846
1843
1835
1830
1819
1817
1818
1823
1815
1821
1827
1831
1843
1877
1911
1955
2007
2069
2130
2191
2235
2280
2310
2317
2311
2301
2277
2247
2189
2141
2105
2055
1995
1959
1916
1879
1846
1833
1818
1816
1813
1823
1847
1867
1884
1911
1932
1947
1961
1976
1979
1981
1973
1965
1961
1948
1927
1915
1897
1877
1861
1851
1846
1835
1827
1818
1820
1819
1813
1815
1819
1823
1820
1832
1844
1860
1878
1915
1967
2023
2079
2149
2205
2253
2291
2323
2331
2328
2301
2277
2245
2199
2142
2101
2053
1995
1947
1913
1881
1854
1830
1823
1823
1823
1831
1851
1869
1885
1903
1928
1944
1957
1957
1955
1961
1950
1940
1932
1915
1896
1880
1871
1855
1845
1828
1817
1817
1811
1799
1802
1803
1791
1801
1807
1817
1823
1823
1831
1837
1843
1838
1851
1851
1851
1865
1891
1917
1961
2005
2063
2121
2171
2215
2257
2280
2283
2279
2271
2251
2213
2163
2118
2078
2027
1973
1940
1899
1863
1833
1819
1813
1810
1811
1819
1837
1861
1873
1895
1915
1927
1939
1945
1949
1946
1931
1919
1913
1896
1879
1867
1851
1837
1827
1823
1813
1805
1791
1790
1799
1799
1791
1804
1810
1807
1811
1823
1827
1835
1836
1839
1845
1849
1843
1848
1847
1839
1836
1839
1844
1853
1867
1897
1932
1991
2039
2103
2153
2197
2228
2255
2265
2261
2236
2211
2184
2139
2091
2044
2002
1951
1907
1879
1848
1823
1807
1801
1811
1819
1829
1854
1880
1895
1913
1935
1951
1958
1957
1957
1951
1949
1939
1927
1911
1895
1877
1867
1850
1843
1823
1815
1812
1813
1807
1812
1813
1811
1813
1821
1829
1834
1835
1835
1847
1847
1839
1848
1849
1847
1843
1851
1863
1875
1893
1928
1971
2013
2056
2101
2135
2157
2169
2186
2181
2165
2135
2103
2073
2031
1982
1951
1927
1873
1844
1827
1807
1802
1792
1801
1818
1837
1848
1879
1901
1917
1932
1948
1955
1958
1949
1941
1939
1919
1908
1897
1883
1868
1851
1846
1835
1831
1819
1815
1816
1813
1811
1815
1815
1819
1818
1828
1829
1831
1829
1831
1839
1850
1864
1892
1929
1963
2009
2061
2105
2146
2163
2183
2195
2187
2163
2139
2106
2067
2021
1983
1942
1903
1864
1833
1816
1801
1783
1785
1789
1797
1805
1823
1840
1853
1865
1876
1890
1893
1890
1891
1885
1879
1861
1853
1843
1833
1815
1801
1801
1789
1781
1781
1775
1771
1768
1774
1779
1780
1781
1785
1791
1799
1790
1805
1817
1834
1861
1907
1952
2009
2069
2127
2189
2233
2259
2284
2293
2285
2255
2229
2187
2147
2093
2053
2007
1963
1915
1884
1853
1829
1815
1811
1809
1815
1821
1836
1864
1883
1898
1926
1940
1944
1949
1961
1958
1955
1941
1929
1917
1903
1881
1879
1862
1839
1831
1829
1819
1817
1806
1801
1804
1805
1799
1805
1810
1805
1811
1815
1817
1827
1827
1839
1855
1887
1918
1973
2027
2085
2147
2205
2253
2292
2313
2323
2319
2309
2276
2239
2201
2147
2095
2056
2007
1963
1917
1890
1871
1853
1839
1843
1847
1851
1865
1891
1908
1927
1941
1955
1971
1979
1975
1979
1971
1961
1948
1943
1927
1903
1885
1867
1860
1845
1827
1821
1815
1805
1801
1805
1807
1804
1803
1807
1815
1821
1819
1831
1835
1833
1835
1845
1846
1849
1845
1853
1885
1909
1944
1996
2059
2111
2170
2224
2269
2301
2313
2314
2303
2280
2240
2201
2155
2101
2053
2007
1959
1919
1880
1851
1838
1831
1822
1833
1845
1863
1879
1903
1929
1949
1959
1973
1981
1989
1981
1977
1976
1958
1943
1931
1915
1896
1877
1855
1846
1835
1817
1817
1816
1810
1803
1815
1823
1823
1827
1833
1844
1851
1851
1863
1873
1873
1875
1881
1879
1879
1871
1865
1864
1863
1855
1875
1891
1917
1959
2012
2073
2133
2175
2223
2267
2286
2285
2282
2265
2227
2188
2149
2099
2044
1989
1940
1901
1865
1833
1815
1801
1797
1800
1820
1843
1865
1891
1917
1947
1973
1979
1995
2004
2003
1991
1984
1971
1959
1931
1914
1901
1885
1863
1854
1843
1829
1820
1820
1819
1815
1813
1815
1821
1827
1823
1833
1835
1835
1834
1843
1845
1850
1855
1875
1903
1943
1979
2039
2096
2147
2197
2235
2263
2279
2269
2261
2238
2205
2156
2117
2065
2009
1957
1915
1875
1839
1803
1785
1779
1775
1782
1803
1823
1843
1874
1901
1927
1949
1959
1972
1979
1982
1981
1978
1967
1950
1931
1917
1903
1891
1867
1851
1845
1835
1819
1819
1816
1805
1801
1809
1807
1809
1805
1812
1821
1824
1823
1835
1839
1848
1875
1903
1955
2006
2069
2137
2203
2265
2311
2347
2364
2365
2345
2325
2286
2239
2181
2122
2071
2009
1955
1915
1875
1837
1813
1804
1798
1799
1805
1827
1849
1881
1901
1931
1957
1971
1981
1997
2003
2003
1993
1979
1968
1950
1929
1914
1893
1870
1849
1837
1831
1821
1807
1807
1807
1807
1805
1816
1816
1819
1821
1832
1837
1839
1840
1846
1852
1855
1865
1881
1909
1943
1989
2045
2117
2175
2231
2283
2328
2354
2359
2355
2333
2293
2252
2205
2147
2088
2028
1979
1931
1892
1847
1823
1805
1787
1787
1803
1817
1843
1863
1890
1916
1943
1955
1974
1983
1989
1981
1979
1971
1956
1934
1915
1899
1882
1861
1851
1837
1823
1815
1813
1805
1804
1801
1800
1803
1811
1811
1819
1831
1831
1835
1847
1853
1861
1851
1861
1863
1865
1865
1877
1893
1913
1949
2003
2061
2119
2165
2215
2267
2295
2303
2317
2302
2277
2233
2199
2151
2101
2041
1995
1950
1907
1865
1835
1815
1799
1789
1801
1815
1835
1855
1891
1919
1955
1971
1997
2011
2011
2008
2008
2001
1983
1961
1943
1929
1909
1885
1869
1853
1838
1829
1829
1821
1823
1820
1823
1831
1833
1836
1855
1852
1851
1861
1880
1899
1925
1955
1995
2045
2100
2152
2207
2251
2278
2295
2303
2297
2277
2232
2195
2151
2095
2035
1989
1933
1886
1845
1817
1791
1785
1772
1782
1801
1823
1847
1879
1902
1927
1945
1966
1975
1981
1975
1971
1965
1951
1930
1919
1907
1883
1867
1851
1837
1829
1816
1804
1803
1799
1791
1799
1797
1791
1792
1803
1807
1813
1816
1829
1861
1893
1935
1999
2071
2135
2203
2275
2325
2361
2379
2383
2375
2345
2301
2261
2207
2147
2083
2025
1971
1919
1873
1837
1813
1798
1785
1791
1805
1819
1843
1875
1898
1927
1944
1963
1981
1995
1991
1989
1977
1965
1945
1935
1916
1891
1877
1853
1837
1823
1805
1804
1797
1785
1783
1788
1789
1799
1799
1802
1807
1817
1819
1834
1847
1865
1892
1941
1992
2056
2111
2173
2237
2287
2317
2345
2347
2333
2301
2271
2227
2171
2109
2057
2005
1949
1895
1861
1823
1797
1787
1779
1781
1789
1805
1827
1853
1880
1900
1929
1948
1955
1961
1971
1967
1960
1945
1933
1919
1901
1879
1865
1846
1824
1812
1807
1798
1789
1779
1780
1782
1783
1784
1799
1801
1810
1815
1828
1833
1845
1844
1847
1855
1853
1849
1851
1852
1846
1847
1863
1879
1907
1943
1996
2067
2131
2186
2248
2293
2321
2329
2333
2319
2287
2239
2191
2143
2088
2021
1974
1919
1875
1832
1812
1791
1783
1780
1791
1813
1833
1849
1881
1907
1929
1945
1967
1977
1982
1971
1967
1959
1945
1919
1909
1891
1869
1849
1843
1829
1817
1803
1797
1791
1787
1789
1787
1791
1791
1803
1804
1813
1817
1819
1823
1835
1845
1847
1854
1855
1851
1850
1855
1853
1849
1837
1834
1833
1829
1823
1838
1855
1881
1917
1979
2039
2107
2159
2221
2271
2299
2312
2314
2295
2260
2217
2172
2122
2069
2002
1949
1899
1855
1814
1789
1769
1762
1759
1781
1797
1819
1843
1875
1907
1934
1949
1972
1980
1989
1989
1983
1976
1963
1943
1927
1911
1893
1864
1850
1834
1815
1805
1801
1797
1791
1783
1783
1789
1799
1790
1805
1807
1811
1814
1828
1834
1836
1837
1839
1849
1851
1839
1844
1845
1837
1839
1855
1871
1893
1928
1972
2029
2085
2131
2183
2219
2239
2252
2255
2237
2214
2171
2131
2085
2026
1967
1919
1875
1829
1788
1771
1755
1751
1749
1759
1781
1803
1829
1867
1896
1916
1943
1961
1973
1980
1973
1968
1967
1955
1935
1927
1903
1883
1866
1850
1833
1823
1805
1791
1786
1781
1775
1787
1773
1773
1779
1785
1790
1797
1798
1801
1811
1815
1812
1817
1821
1827
1835
1861
1881
1929
1957
2007
2067
2117
2153
2199
2221
2231
2231
2221
2201
2165
2120
2076
2031
1983
1930
1892
1843
1806
1773
1764
1758
1763
1769
1788
1819
1848
1877
1911
1941
1959
1977
1997
2003
2005
1996
1995
1977
1963
1941
1929
1909
1885
1864
1852
1839
1829
1815
1812
1811
1810
1802
1807
1815
1811
1811
1823
1828
1833
1837
1861
1891
1927
1963
2019
2072
2121
2167
2215
2248
2265
2264
2253
2239
2213
2166
2126
2075
2019
1965
1927
1879
1840
1801
1783
1779
1775
1780
1804
1829
1848
1880
1915
1945
1971
1993
2012
2025
2025
2024
2022
2011
1993
1988
1963
1943
1929
1897
1880
1868
1855
1837
1837
1831
1821
1818
1824
1829
1836
1849
1879
1926
1976
2037
2109
2173
2235
2293
2341
2373
2385
2377
2355
2328
2285
2227
2175
2119
2057
1993
1949
1902
1867
1833
1821
1819
1829
1834
1867
1892
1917
1955
1993
2021
2045
2063
2073
2083
2085
2073
2067
2043
2020
1997
1977
1961
1938
1908
1891
1881
1867
1847
1845
1839
1837
1839
1867
1897
1944
1997
2074
2157
2245
2323
2395
2452
2485
2504
2508
2489
2457
2403
2347
2285
2221
2149
2091
2029
1971
1926
1897
1871
1864
1853
1865
1891
1913
1939
1971
2003
2027
2053
2077
2088
2093
2086
2079
2077
2055
2019
1999
1973
1943
1917
1901
1883
1871
1849
1839
1835
1833
1823
1833
1837
1847
1874
1915
1971
2041
2125
2215
2311
2395
2464
2525
2567
2581
2575
2549
2511
2461
2395
2333
2267
2203
2135
2085
2031
1981
1951
1931
1914
1909
1909
1927
1947
1971
1993
2017
2039
2056
2069
2076
2075
2071
2056
2041
2025
2005
1980
1965
1944
1920
1907
1899
1891
1885
1877
1876
1881
1883
1884
1895
1899
1901
1903
1917
1919
1927
1928
1940
1966
1999
2041
2107
2175
2251
2325
2399
2459
2501
2521
2523
2518
2487
2439
2392
2335
2265
2201
2147
2087
2025
1971
1935
1907
1884
1865
1867
1871
1879
1897
1919
1945
1971
1982
2004
2018
2021
2018
2014
2007
1993
1974
1959
1943
1917
1893
1878
1865
1851
1835
1831
1823
1817
1814
1819
1821
1824
1829
1833
1847
1851
1854
1867
1868
1869
1870
1867
1875
1871
1864
1863
1864
1865
1855
1863
1861
1850
1846
1850
1845
1847
1836
1831
1835
1833
1823
1829
1832
1849
1883
1943
2007
2089
2171
2254
2333
2405
2447
2479
2487
2471
2443
2405
2347
2285
2213
2147
2088
2023
1961
1915
1877
1837
1817
1812
1807
1816
1823
1845
1871
1897
1918
1947
1963
1977
1975
1981
1977
1965
1945
1933
1916
1897
1871
1855
1839
1822
1804
1799
1787
1783
1776
1775
1784
1787
1787
1800
1805
1805
1814
1824
1831
1837
1836
1843
1847
1845
1844
1845
1847
1835
1831
1833
1829
1827
1815
1811
1815
1815
1805
1805
1801
1791
1786
1788
1786
1782
1778
1783
1803
1828
1865
1916
1977
2055
2123
2199
2261
2311
2331
2347
2347
2328
2287
2253
2202
2139
2078
2024
1972
1918
1869
1831
1805
1783
1765
1765
1767
1773
1789
1821
1837
1861
1873
1891
1907
1917
1915
1919
1915
1901
1886
1881
1863
1845
1823
1809
1801
1783
1771
1768
1763
1755
1751
1756
1759
1765
1764
1767
1774
1785
1785
1791
1801
1801
1798
1805
1804
1814
1798
1799
1800
1797
1789
1797
1791
1785
1784
1785
1781
1780
1770
1770
1773
1769
1765
1765
1765
1767
1771
1801
1833
1879
1929
1989
2057
2110
2156
2201
2227
2233
2232
2221
2199
2159
2111
2063
2011
1961
1899
1865
1823
1788
1764
1753
1745
1748
1751
1768
1798
1819
1840
1871
1895
1911
1927
1937
1941
1941
1931
1917
1909
1891
1868
1851
1834
1816
1799
1788
1779
1771
1759
1759
1763
1765
1761
1770
1771
1772
1779
1789
1800
1807
1807
1815
1823
1827
1821
1829
1831
1823
1819
1821
1819
1813
1801
1799
1803
1789
1783
1787
1799
1815
1836
1879
1928
1976
2023
2075
2123
2153
2171
2187
2181
2165
2137
2111
2075
2027
1976
1933
1893
1851
1811
1785
1764
1745
1741
1749
1763
1779
1799
1828
1855
1883
1895
1927
1931
1941
1943
1943
1937
1927
1907
1891
1877
1863
1839
1831
1819
1804
1787
1785
1781
1775
1768
1767
1769
1773
1773
1784
1791
1787
1789
1801
1803
1801
1801
1802
1807
1815
1823
1851
1881
1916
1960
2013
2071
2119
2150
2183
2207
2216
2207
2195
2167
2129
2087
2044
2002
1951
1903
1867
1834
1805
1773
1765
1765
1753
1763
1785
1807
1831
1851
1876
1907
1933
1941
1958
1966
1960
1951
1949
1941
1926
1899
1884
1875
1850
1828
1819
1811
1799
1787
1787
1787
1787
1781
1783
1788
1788
1785
1798
1803
1811
1827
1855
1896
1945
1995
2060
2131
2189
2239
2286
2317
2329
2325
2318
2287
2252
2201
2151
2104
2053
1991
1949
1903
1866
1831
1813
1800
1797
1791
1805
1822
1851
1867
1895
1917
1935
1950
1965
1975
1977
1971
1963
1959
1943
1919
1907
1891
1867
1847
1836
1823
1815
1801
1791
1799
1799
1789
1797
1799
1797
1799
1807
1812
1817
1827
1845
1881
1919
1971
2053
2127
2201
2275
2344
2399
2431
2451
2449
2439
2406
2356
2311
2251
2191
2125
2077
2023
1974
1927
1893
1869
1847
1835
1840
1847
1853
1869
1899
1920
1945
1960
1979
1998
2007
2005
2005
2003
1981
1963
1947
1931
1910
1881
1867
1851
1835
1819
1815
1807
1798
1787
1799
1801
1805
1805
1817
1824
1833
1832
1843
1843
1839
1845
1867
1887
1919
1963
2025
2104
2185
2263
2339
2397
2443
2471
2484
2475
2452
2404
2355
2297
2235
2174
2107
2052
1991
1941
1902
1868
1839
1819
1813
1819
1832
1848
1875
1903
1927
1944
1967
1989
1997
1997
1999
1996
1987
1962
1951
1929
1903
1881
1867
1847
1830
1806
1800
1799
1791
1775
1776
1773
1775
1775
1789
1790
1803
1807
1816
1832
1835
1839
1848
1853
1851
1855
1861
1855
1849
1839
1835
1835
1835
1836
1862
1894
1944
2009
2095
2185
2271
2345
2413
2463
2491
2495
2485
2457
2407
2343
2287
2215
2143
2070
2003
1949
1899
1851
1827
1805
1789
1785
1802
1817
1845
1864
1891
1919
1945
1963
1983
1995
1995
1995
1992
1979
1965
1941
1919
1901
1881
1854
1838
1816
1797
1780
1773
1767
1763
1757
1765
1771
1775
1780
1797
1803
1807
1815
1829
1832
1839
1839
1845
1852
1853
1847
1849
1848
1838
1832
1833
1833
1835
1845
1876
1929
1975
2040
2123
2199
2266
2327
2380
2407
2412
2397
2367
2332
2281
2213
2152
2087
2012
1949
1901
1849
1811
1775
1753
1751
1751
1755
1780
1804
1831
1861
1893
1915
1941
1955
1965
1976
1977
1963
1959
1943
1914
1894
1879
1855
1835
1816
1801
1797
1781
1768
1767
1767
1757
1755
1759
1767
1769
1771
1775
1791
1801
1803
1818
1827
1831
1831
1837
1837
1837
1829
1824
1831
1833
1839
1865
1897
1934
1991
2059
2121
2183
2231
2278
2309
2323
2309
2293
2259
2207
2153
2106
2043
1982
1919
1867
1829
1786
1751
1737
1726
1711
1721
1747
1767
1789
1813
1837
1868
1891
1901
1915
1917
1917
1915
1912
1900
1884
1864
1847
1836
1823
1807
1799
1787
1783
1774
1781
1783
1785
1773
1784
1791
1801
1800
1811
1813
1813
1815
1820
1820
1821
1821
1831
1846
1874
1897
1944
1995
2041
2096
2151
2198
2229
2249
2253
2259
2235
2203
2171
2127
2072
2011
1963
1907
1855
1804
1770
1747
1733
1717
1725
1742
1759
1791
1820
1853
1883
1911
1935
1959
1967
1967
1975
1968
1959
1944
1940
1919
1899
1875
1853
1839
1819
1803
1791
1779
1765
1759
1765
1765
1765
1764
1767
1776
1779
1787
1813
1836
1870
1917
1975
2040
2103
2156
2207
2251
2278
2283
2282
2261
2227
2183
2139
2084
2024
1964
1911
1867
1821
1779
1756
1741
1727
1733
1751
1771
1803
1829
1855
1895
1927
1944
1965
1979
1984
1989
1983
1975
1963
1939
1924
1901
1882
1849
1843
1828
1811
1799
1791
1785
1779
1771
1772
1775
1785
1800
1829
1871
1925
1991
2071
2149
2221
2286
2340
2383
2403
2397
2388
2356
2301
2245
2185
2123
2058
1983
1928
1877
1831
1789
1772
1763
1754
1764
1785
1813
1839
1869
1903
1939
1965
1990
2011
2018
2014
2007
2005
1991
1973
1951
1931
1913
1894
1868
1856
1837
1821
1810
1802
1797
1789
1787
1799
1817
1845
1883
1949
2027
2109
2201
2293
2365
2429
2467
2489
2495
2476
2439
2395
2333
2261
2187
2125
2059
1995
1931
1881
1848
1819
1790
1789
1797
1809
1829
1864
1895
1927
1950
1979
2003
2013
2015
2021
2017
2002
1988
1977
1962
1941
1914
1895
1877
1860
1836
1823
1811
1797
1787
1791
1787
1789
1785
1800
1817
1845
1884
1949
2027
2119
2212
2313
2403
2469
2523
2567
2579
2568
2525
2484
2425
2351
2277
2211
2137
2073
2003
1947
1907
1870
1835
1821
1815
1815
1826
1847
1869
1899
1926
1949
1979
1998
2007
2019
2019
2008
1992
1979
1960
1935
1911
1887
1871
1849
1830
1821
1809
1797
1787
1797
1797
1799
1791
1803
1815
1827
1831
1838
1843
1839
1845
1852
1855
1863
1853
1852
1855
1852
1845
1849
1851
1863
1885
1935
2001
2085
2171
2267
2365
2453
2513
2567
2587
2581
2554
2519
2461
2397
2318
2248
2183
2116
2042
1991
1941
1893
1852
1837
1827
1819
1819
1835
1855
1881
1899
1929
1949
1964
1975
1983
1983
1979
1967
1957
1945
1933
1903
1895
1869
1847
1823
1811
1801
1789
1779
1774
1773
1775
1776
1785
1798
1799
1805
1827
1821
1831
1831
1835
1847
1849
1845
1851
1851
1845
1835
1837
1831
1827
1819
1817
1817
1817
1809
1813
1811
1811
1805
1805
1805
1799
1790
1797
1811
1841
1885
1956
2041
2139
2238
2335
2423
2491
2535
2555
2564
2532
2479
2425
2355
2276
2199
2123
2059
1989
1920
1870
1833
1799
1772
1770
1767
1770
1789
1820
1847
1875
1895
1919
1945
1961
1965
1975
1971
1961
1944
1933
1913
1892
1863
1843
1824
1807
1787
1781
1769
1757
1752
1755
1753
1755
1757
1767
1774
1783
1785
1803
1815
1817
1822
1833
1835
1839
1833
1835
1835
1835
1828
1830
1823
1815
1806
1813
1809
1803
1789
1787
1787
1783
1771
1768
1767
1759
1763
1783
1807
1849
1903
1975
2063
2149
2221
2301
2365
2403
2425
2432
2414
2381
2326
2275
2205
2138
2065
1998
1937
1877
1823
1788
1765
1751
1739
1743
1759
1780
1803
1835
1863
1886
1913
1939
1951
1963
1959
1957
1952
1939
1915
1900
1879
1849
1828
1815
1799
1779
1765
1751
1751
1747
1741
1747
1752
1751
1753
1763
1768
1773
1775
1785
1797
1800
1799
1810
1813
1813
1810
1820
1821
1817
1813
1805
1811
1804
1791
1791
1787
1783
1771
1771
1767
1771
1769
1785
1813
1851
1897
1963
2031
2100
2167
2223
2270
2297
2303
2299
2284
2248
2198
2150
2089
2025
1963
1913
1865
1819
1775
1750
1737
1727
1725
1747
1769
1790
1823
1861
1891
1913
1939
1955
1971
1973
1967
1964
1949
1929
1907
1895
1871
1851
1831
1820
1801
1785
1773
1771
1765
1754
1752
1761
1763
1765
1765
1772
1781
1791
1789
1807
1815
1817
1817
1827
1823
1823
1815
1816
1819
1817
1812
1817
1823
1836
1867
1912
1963
2023
2083
2140
2195
2235
2261
2281
2281
2263
2230
2200
2152
2104
2039
1979
1935
1880
1829
1799
1765
1739
1726
1737
1741
1759
1781
1815
1851
1891
1916
1950
1971
1981
1989
1997
1991
1976
1957
1940
1926
1903
1875
1851
1839
1819
1803
1799
1789
1782
1769
1769
1773
1778
1771
1779
1783
1787
1785
1788
1797
1801
1805
1827
1862
1901
1949
2020
2095
2159
2229
2295
2343
2373
2379
2373
2355
2319
2266
2215
2165
2090
2022
1965
1908
1863
1813
1779
1763
1752
1746
1759
1779
1799
1829
1867
1899
1925
1951
1979
1993
2007
2003
2003
1995
1972
1951
1940
1915
1894
1865
1845
1829
1811
1789
1787
1778
1767
1763
1768
1769
1770
1769
1771
1781
1787
1787
1811
1833
1867
1917
1991
2077
2166
2255
2345
2423
2487
2524
2549
2549
2521
2479
2432
2363
2294
2214
2137
2071
2004
1939
1885
1843
1805
1785
1776
1785
1801
1819
1849
1893
1929
1957
1995
2011
2029
2037
2040
2037
2026
2005
1989
1967
1943
1916
1899
1879
1851
1833
1823
1813
1806
1796
1791
1799
1799
1791
1804
1811
1813
1817
1828
1833
1835
1834
1845
1865
1890
1929
1993
2073
2157
2259
2359
2445
2520
2571
2602
2613
2599
2555
2509
2447
2367
2287
2217
2147
2073
2003
1943
1895
1862
1823
1814
1811
1811
1823
1849
1879
1913
1943
1972
2007
2029
2039
2055
2054
2040
2024
2006
1983
1961
1929
1901
1885
1855
1832
1818
1803
1786
1781
1775
1779
1780
1781
1785
1801
1811
1815
1829
1837
1843
1845
1863
1867
1869
1867
1877
1892
1912
1942
1999
2071
2143
2229
2323
2407
2473
2517
2543
2555
2539
2494
2453
2387
2313
2235
2165
2091
2019
1950
1897
1855
1821
1791
1784
1783
1791
1805
1834
1863
1895
1919
1951
1975
2003
2003
2013
2009
1996
1975
1963
1943
1919
1891
1867
1848
1828
1804
1797
1783
1772
1767
1769
1770
1771
1768
1774
1787
1802
1798
1811
1819
1823
1832
1839
1847
1851
1849
1849
1851
1849
1839
1843
1843
1839
1851
1891
1932
1992
2069
2149
2245
2327
2391
2455
2473
2477
2462
2438
2391
2327
2253
2182
2111
2035
1960
1900
1845
1791
1759
1737
1728
1733
1739
1763
1797
1829
1855
1895
1931
1949
1964
1983
1991
1993
1977
1963
1950
1933
1902
1885
1861
1837
1813
1789
1781
1771
1753
1749
1751
1753
1749
1755
1764
1765
1775
1787
1799
1803
1811
1817
1823
1831
1829
1832
1829
1824
1826
1831
1837
1854
1881
1929
1991
2059
2126
2202
2264
2316
2351
2381
2379
2359
2323
2280
2223
2159
2091
2023
1955
1891
1833
1787
1749
1721
1705
1703
1717
1739
1763
1803
1839
1876
1912
1945
1967
1989
1993
1991
1993
1981
1963
1948
1925
1899
1875
1852
1834
1816
1797
1781
1774
1768
1758
1764
1757
1753
1755
1767
1775
1781
1783
1791
1804
1806
1803
1811
1817
1819
1831
1853
1891
1938
1983
2043
2111
2171
2216
2259
2279
2281
2278
2253
2217
2169
2108
2055
1995
1932
1865
1818
1768
1723
1695
1687
1687
1695
1711
1742
1780
1819
1851
1896
1928
1949
1963
1979
1983
1980
1963
1949
1935
1916
1896
1877
1851
1832
1814
1803
1789
1779
1767
1764
1763
1763
1755
1755
1757
1755
1757
1773
1788
1821
1854
1910
1974
2040
2107
2182
2236
2279
2309
2327
2326
2296
2259
2212
2155
2091
2019
1958
1892
1831
1775
1740
1705
1689
1675
1691
1709
1740
1767
1813
1849
1883
1919
1956
1977
1993
1995
1999
1991
1977
1957
1944
1919
1891
1865
1847
1827
1807
1783
1773
1767
1761
1747
1750
1749
1751
1752
1767
1801
1828
1875
1942
2019
2105
2185
2267
2331
2379
2408
2423
2411
2383
2335
2284
2229
2159
2083
2015
1945
1881
1821
1781
1747
1726
1711
1717
1739
1763
1791
1831
1867
1898
1929
1965
1979
1995
1995
1997
1995
1980
1959
1944
1917
1887
1866
1847
1830
1813
1787
1776
1771
1764
1755
1757
1759
1756
1757
1775
1801
1835
1881
1947
2029
2125
2215
2308
2390
2450
2489
2515
2515
2491
2447
2393
2328
2253
2175
2107
2035
1961
1899
1855
1815
1785
1763
1757
1767
1775
1798
1829
1865
1895
1926
1959
1979
1996
1999
2003
1999
1995
1971
1955
1931
1903
1881
1866
1847
1831
1809
1797
1785
1789
1779
1783
1783
1779
1785
1798
1805
1811
1813
1817
1829
1836
1846
1883
1927
1978
2063
2153
2249
2342
2423
2491
2543
2573
2572
2555
2521
2461
2397
2331
2257
2185
2104
2037
1979
1929
1877
1849
1819
1805
1799
1813
1823
1845
1865
1895
1925
1947
1961
1979
1995
1993
1989
1989
1974
1951
1934
1911
1893
1871
1843
1831
1816
1801
1786
1784
1782
1783
1775
1783
1789
1799
1801
1813
1819
1828
1831
1845
1851
1853
1851
1854
1861
1865
1862
1863
1855
1848
1841
1847
1839
1837
1829
1827
1827
1823
1815
1816
1813
1805
1804
1810
1819
1850
1883
1949
2037
2146
2254
2367
2472
2552
2620
2663
2675
2663
2619
2570
2504
2425
2335
2259
2175
2099
2026
1966
1911
1871
1834
1817
1805
1809
1815
1835
1865
1883
1911
1943
1963
1987
1992
2007
2003
1995
1980
1967
1949
1929
1903
1885
1863
1839
1817
1803
1789
1784
1769
1770
1769
1767
1767
1779
1787
1797
1800
1811
1819
1829
1833
1843
1847
1847
1850
1855
1861
1855
1849
1847
1845
1837
1829
1823
1819
1810
1801
1801
1789
1787
1779
1781
1799
1817
1853
1915
1993
2085
2183
2279
2365
2445
2492
2523
2535
2521
2472
2425
2361
2278
2195
2121
2041
1971
1896
1839
1801
1767
1739
1735
1735
1749
1772
1805
1839
1875
1903
1933
1961
1979
1989
1996
1994
1981
1965
1951
1935
1909
1879
1853
1837
1819
1788
1781
1769
1757
1747
1753
1753
1753
1751
1761
1771
1780
1789
1805
1815
1819
1823
1835
1837
1839
1838
1843
1847
1845
1837
1839
1835
1823
1819
1815
1807
1799
1785
1775
1783
1797
1816
1864
1917
1983
2071
2151
2231
2296
2347
2379
2393
2391
2355
2317
2275
2197
2121
2059
1981
1914
1843
1790
1751
1719
1691
1691
1695
1711
1739
1776
1819
1863
1897
1933
1965
1991
2003
2009
2007
1993
1977
1961
1935
1913
1879
1851
1835
1815
1789
1775
1769
1756
1757
1753
1751
1755
1755
1763
1772
1781
1783
1803
1807
1810
1811
1819
1821
1821
1818
1821
1823
1835
1847
1881
1919
1967
2029
2102
2167
2227
2269
2301
2325
2326
2299
2276
2233
2175
2120
2063
1995
1933
1867
1815
1771
1733
1704
1699
1695
1703
1721
1753
1787
1829
1865
1901
1939
1963
1976
1989
1992
1981
1973
1963
1946
1925
1897
1875
1853
1831
1812
1798
1783
1771
1763
1763
1757
1754
1753
1755
1763
1767
1767
1779
1785
1785
1797
1814
1839
1875
1927
1991
2075
2155
2232
2313
2376
2415
2440
2447
2428
2393
2345
2285
2220
2148
2071
1999
1935
1870
1815
1779
1743
1723
1710
1715
1733
1753
1779
1819
1853
1893
1927
1957
1978
1994
1997
1997
1997
1983
1962
1949
1927
1897
1875
1855
1834
1819
1791
1781
1773
1769
1759
1763
1763
1759
1762
1769
1775
1779
1783
1789
1805
1821
1838
1879
1932
1995
2073
2159
2245
2323
2381
2428
2461
2472
2456
2427
2385
2319
2252
2185
2111
2035
1963
1900
1849
1805
1765
1749
1737
1727
1743
1769
1799
1829
1861
1895
1929
1956
1973
1993
1998
1995
1983
1977
1961
1941
1910
1891
1869
1855
1819
1805
1785
1771
1755
1751
1741
1736
1727
1733
1739
1741
1740
1751
1757
1767
1773
1789
1812
1839
1879
1933
2003
2083
2164
2251
2327
2383
2427
2461
2469
2453
2415
2367
2319
2249
2169
2105
2026
1956
1887
1837
1799
1759
1736
1724
1735
1749
1769
1805
1837
1869
1903
1941
1965
1983
1993
1996
1997
1991
1965
1951
1929
1901
1864
1851
1823
1813
1788
1780
1772
1765
1756
1756
1758
1757
1765
1775
1783
1785
1789
1791
1807
1814
1814
1821
1832
1839
1869
1914
1973
2037
2119
2203
2287
2359
2413
2457
2477
2477
2457
2425
2379
2316
2239
2171
2105
2031
1957
1897
1834
1790
1755
1747
1741
1751
1765
1790
1835
1877
1909
1947
1977
1998
2011
2026
2029
2023
2006
1999
1971
1944
1919
1897
1875
1843
1823
1812
1801
1787
1781
1771
1772
1775
1773
1783
1785
1789
1799
1813
1821
1829
1834
1847
1868
1896
1932
1982
2043
2111
2181
2252
2312
2357
2380
2389
2386
2355
2312
2264
2201
2131
2057
1989
1920
1861
1799
1755
1725
1708
1699
1718
1742
1769
1811
1853
1898
1939
1976
1997
2017
2029
2027
2028
2013
1991
1963
1945
1916
1895
1866
1844
1831
1815
1800
1787
1780
1769
1767
1769
1769
1772
1771
1780
1785
1803
1818
1848
1893
1944
2009
2087
2163
2230
2292
2341
2379
2390
2379
2359
2317
2263
2201
2139
2069
1993
1919
1853
1803
1755
1709
1695
1687
1691
1711
1752
1787
1830
1875
1915
1956
1989
2006
2021
2025
2023
2012
2003
1979
1956
1928
1902
1880
1855
1832
1816
1803
1785
1770
1769
1767
1763
1758
1759
1768
1779
1798
1839
1884
1955
2035
2127
2215
2297
2363
2415
2456
2468
2453
2427
2381
2321
2248
2181
2099
2019
1941
1871
1813
1765
1720
1702
1693
1696
1718
1753
1787
1832
1875
1915
1952
1983
1999
2019
2023
2013
2004
1995
1973
1951
1919
1896
1873
1849
1829
1815
1799
1779
1770
1767
1763
1758
1755
1763
1774
1801
1832
1894
1964
2055
2147
2249
2344
2421
2477
2517
2535
2526
2488
2443
2383
2303
2224
2152
2074
1994
1915
1853
1806
1763
1737
1720
1720
1727
1751
1785
1821
1861
1891
1927
1957
1977
1984
1999
1995
1977
1965
1950
1931
1907
1879
1855
1837
1821
1803
1789
1779
1771
1763
1765
1765
1767
1765
1769
1775
1785
1791
1819
1855
1903
1967
2060
2151
2249
2340
2424
2491
2537
2553
2553
2527
2486
2422
2355
2279
2201
2117
2053
1977
1915
1853
1819
1785
1757
1753
1759
1771
1797
1815
1845
1881
1911
1933
1957
1973
1976
1975
1973
1963
1950
1920
1903
1885
1861
1831
1817
1800
1784
1768
1767
1757
1753
1752
1751
1767
1774
1783
1797
1805
1813
1817
1823
1834
1835
1835
1837
1845
1843
1835
1837
1836
1845
1871
1917
1974
2043
2131
2219
2312
2393
2456
2505
2525
2523
2501
2464
2411
2343
2263
2186
2121
2037
1965
1909
1853
1815
1779
1767
1759
1763
1769
1789
1817
1847
1875
1907
1929
1943
1957
1966
1966
1961
1945
1930
1914
1897
1871
1851
1832
1813
1791
1786
1775
1767
1755
1753
1755
1756
1756
1767
1775
1779
1787
1803
1815
1823
1827
1833
1840
1845
1843
1846
1839
1837
1832
1831
1823
1816
1805
1799
1801
1803
1816
1849
1901
1959
2041
2135
2221
2301
2365
2419
2453
2459
2443
2412
2363
2299
2231
2163
2088
2012
1939
1881
1829
1785
1747
1735
1726
1722
1735
1761
1787
1816
1843
1871
1899
1919
1931
1947
1948
1939
1933
1919
1912
1891
1865
1847
1832
1817
1797
1785
1773
1763
1753
1753
1752
1750
1749
1751
1755
1769
1771
1787
1791
1801
1807
1817
1822
1827
1820
1823
1827
1827
1817
1819
1813
1803
1797
1789
1781
1784
1785
1804
1835
1877
1933
2009
2085
2157
2220
2283
2323
2348
2349
2335
2313
2271
2213
2157
2091
2021
1957
1903
1846
1803
1757
1734
1725
1719
1727
1754
1775
1805
1834
1877
1899
1927
1941
1951
1964
1965
1959
1955
1939
1916
1895
1879
1853
1835
1813
1798
1783
1773
1759
1756
1754
1747
1748
1756
1764
1773
1775
1786
1799
1805
1807
1815
1817
1816
1816
1821
1822
1819
1811
1812
1819
1830
1846
1883
1919
1965
2019
2079
2135
2183
2214
2233
2247
2237
2213
2188
2149
2095
2039
1992
1943
1886
1832
1797
1767
1742
1725
1734
1745
1754
1779
1812
1838
1874
1896
1917
1943
1957
1960
1966
1964
1951
1940
1928
1912
1893
1867
1849
1835
1817
1802
1797
1783
1775
1769
1769
1767
1769
1767
1768
1773
1781
1779
1791
1803
1815
1834
1867
1907
1955
2008
2071
2133
2189
2233
2277
2299
2301
2291
2275
2235
2195
2137
2085
2027
1971
1909
1865
1820
1784
1757
1748
1743
1751
1763
1787
1817
1848
1879
1915
1942
1959
1976
1989
1991
1991
1976
1965
1955
1935
1910
1895
1876
1853
1838
1827
1816
1803
1787
1781
1783
1781
1773
1783
1784
1789
1801
1829
1865
1909
1967
2042
2127
2207
2279
2348
2403
2429
2449
2447
2425
2390
2335
2279
2217
2151
2077
2013
1959
1898
1850
1822
1800
1788
1780
1797
1815
1837
1865
1901
1933
1959
1980
2005
2019
2021
2019
2009
2006
1983
1959
1943
1925
1897
1876
1863
1846
1827
1814
1805
1803
1797
1789
1789
1789
1786
1788
1803
1815
1835
1864
1911
1981
2069
2153
2254
2345
2427
2495
2551
2585
2589
2575
2537
2493
2431
2360
2292
2219
2141
2070
2009
1952
1907
1865
1843
1829
1827
1829
1849
1875
1895
1926
1957
1981
2005
2013
2025
2031
2031
2018
2012
1993
1975
1949
1931
1903
1885
1862
1839
1821
1817
1803
1799
1797
1789
1787
1799
1805
1811
1810
1815
1824
1832
1836
1851
1875
1903
1949
2018
2095
2185
2271
2359
2440
2494
2530
2555
2552
2523
2481
2438
2366
2296
2215
2141
2075
2005
1940
1895
1851
1819
1799
1791
1789
1803
1816
1835
1871
1895
1915
1946
1967
1976
1983
1992
1983
1977
1959
1943
1927
1903
1875
1855
1835
1813
1798
1785
1775
1771
1765
1765
1769
1769
1773
1783
1791
1799
1806
1819
1828
1831
1830
1833
1837
1841
1831
1835
1843
1855
1879
1929
1982
2063
2136
2216
2296
2361
2409
2447
2457
2443
2413
2379
2323
2261
2188
2123
2057
1983
1915
1869
1819
1781
1753
1747
1743
1752
1764
1785
1817
1844
1869
1899
1927
1941
1950
1957
1959
1955
1937
1917
1903
1885
1861
1839
1823
1803
1783
1773
1763
1753
1746
1747
1749
1751
1749
1759
1765
1768
1775
1783
1797
1802
1800
1807
1812
1813
1803
1809
1805
1801
1805
1819
1843
1881
1929
1983
2063
2127
2187
2248
2291
2317
2327
2325
2301
2269
2220
2170
2115
2056
1983
1931
1878
1828
1783
1763
1746
1733
1734
1742
1765
1788
1815
1847
1871
1895
1915
1932
1945
1947
1941
1933
1927
1911
1891
1879
1863
1838
1821
1812
1803
1787
1775
1769
1767
1765
1771
1769
1771
1773
1775
1787
1791
1799
1800
1803
1813
1815
1812
1816
1815
1815
1812
1819
1839
1849
1880
1918
1974
2025
2085
2134
2171
2203
2219
2229
2221
2201
2167
2133
2091
2040
1982
1941
1893
1845
1803
1782
1763
1752
1743
1749
1766
1789
1810
1839
1867
1893
1909
1932
1945
1951
1947
1944
1943
1931
1911
1898
1883
1863
1845
1834
1821
1817
1801
1799
1789
1787
1781
1785
1783
1787
1783
1787
1796
1801
1801
1803
1813
1821
1833
1861
1893
1931
1977
2035
2091
2139
2172
2203
2227
2229
2215
2199
2167
2131
2080
2037
1991
1943
1887
1848
1817
1788
1767
1761
1763
1767
1781
1805
1831
1855
1877
1899
1919
1941
1951
1961
1962
1957
1943
1935
1925
1903
1884
1870
1863
1845
1823
1817
1805
1800
1788
1788
1791
1800
1788
1789
1799
1805
1821
1837
1865
1902
1951
2023
2091
2159
2217
2271
2318
2343
2345
2347
2327
2291
2239
2196
2142
2083
2015
1959
1911
1867
1822
1801
1783
1773
1774
1796
1817
1839
1867
1895
1918
1944
1960
1979
1984
1989
1979
1976
1965
1955
1931
1912
1896
1880
1853
1845
1833
1821
1811
1810
1803
1800
1791
1799
1801
1805
1809
1829
1853
1895
1948
2022
2105
2187
2268
2345
2412
2461
2487
2505
2493
2467
2414
2367
2309
2245
2165
2101
2037
1978
1919
1887
1851
1827
1815
1817
1828
1848
1865
1896
1933
1952
1966
1997
2009
2011
2009
2009
1999
1981
1961
1941
1919
1901
1877
1855
1839
1828
1815
1813
1809
1803
1797
1799
1801
1802
1800
1811
1815
1815
1823
1837
1861
1887
1933
1993
2073
2155
2239
2329
2411
2475
2520
2551
2553
2535
2489
2444
2387
2319
2237
2171
2104
2031
1967
1916
1875
1837
1813
1803
1813
1817
1831
1853
1883
1903
1931
1959
1976
1993
1997
1999
1999
1983
1967
1951
1931
1901
1880
1865
1843
1823
1801
1787
1779
1771
1763
1767
1769
1772
1775
1785
1797
1807
1814
1818
1833
1838
1838
1847
1847
1845
1843
1846
1845
1847
1849
1876
1909
1958
2019
2105
2191
2269
2347
2421
2469
2493
2493
2477
2451
2403
2335
2275
2200
2123
2044
1981
1917
1865
1815
1781
1765
1757
1753
1768
1788
1805
1831
1865
1893
1915
1935
1949
1961
1967
1959
1958
1951
1925
1900
1887
1866
1845
1823
1810
1799
1785
1773
1771
1765
1757
1755
1759
1759
1763
1765
1770
1781
1797
1802
1817
1823
1829
1835
1839
1843
1847
1837
1833
1831
1826
1813
1811
1803
1791
1791
1811
1833
1879
1933
2009
2095
2183
2261
2329
2379
2411
2415
2412
2382
2335
2274
2205
2136
2065
1978
1915
1849
1799
1749
1723
1702
1699
1701
1721
1752
1783
1817
1863
1895
1927
1951
1973
1981
1983
1973
1961
1947
1929
1899
1882
1855
1832
1811
1791
1781
1766
1755
1752
1750
1753
1752
1759
1768
1770
1779
1788
1798
1805
1807
1814
1816
1819
1813
1819
1815
1813
1807
1817
1827
1847
1875
1912
1968
2028
2091
2157
2215
2255
2282
2297
2292
2274
2233
2189
2139
2079
2012
1952
1895
1831
1781
1741
1715
1700
1687
1695
1715
1743
1768
1811
1843
1877
1903
1931
1949
1960
1960
1957
1951
1941
1914
1899
1879
1849
1827
1813
1797
1779
1763
1751
1748
1747
1737
1747
1749
1747
1751
1755
1765
1768
1769
1773
1785
1797
1805
1833
1871
1913
1975
2053
2123
2196
2253
2301
2343
2361
2357
2345
2310
2263
2204
2149
2085
2011
1942
1878
1823
1775
1735
1708
1691
1685
1692
1712
1737
1768
1800
1833
1873
1897
1913
1930
1935
1933
1919
1911
1895
1875
1845
1820
1799
1775
1750
1736
1719
1706
1693
1693
1693
1691
1690
1691
1701
1704
1708
1719
1723
1733
1735
1747
1752
1765
1781
1816
1869
1935
2015
2105
2202
2280
2355
2415
2457
2471
2462
2441
2404
2347
2277
2212
2137
2065
1989
1929
1869
1820
1773
1746
1739
1735
1736
1756
1775
1799
1834
1870
1901
1929
1945
1960
1975
1975
1964
1961
1947
1920
1899
1885
1861
1839
1813
1798
1785
1776
1757
1755
1751
1749
1747
1755
1757
1766
1767
1773
1782
1791
1799
1805
1815
1824
1843
1875
1927
1990
2068
2153
2253
2347
2425
2504
2553
2581
2587
2569
2531
2475
2399
2327
2251
2169
2085
2013
1957
1891
1836
1812
1783
1773
1773
1787
1815
1839
1871
1907
1941
1960
1983
1997
2005
2003
1992
1977
1966
1947
1917
1899
1867
1846
1819
1805
1784
1771
1755
1748
1741
1738
1737
1751
1753
1765
1775
1798
1813
1827
1831
1839
1849
1853
1852
1863
1873
1890
1919
1971
2031
2108
2195
2279
2349
2413
2455
2487
2490
2470
2425
2385
2315
2239
2159
2079
2007
1935
1863
1811
1764
1723
1703
1701
1703
1721
1751
1785
1828
1869
1899
1941
1965
1981
1993
1998
1995
1981
1965
1944
1929
1907
1878
1855
1833
1813
1789
1781
1770
1765
1755
1752
1751
1753
1758
1769
1772
1780
1785
1801
1811
1817
1817
1823
1835
1833
1833
1847
1865
1895
1944
2009
2085
2159
2233
2308
2363
2405
2419
2421
2403
2359
2303
2247
2173
2096
2012
1940
1876
1812
1755
1721
1695
1681
1685
1707
1739
1775
1817
1863
1913
1949
1980
2011
2025
2029
2029
2023
2009
1991
1962
1939
1911
1891
1861
1842
1821
1801
1786
1783
1771
1769
1763
1759
1767
1763
1765
1771
1781
1783
1791
1811
1827
1855
1895
1947
2019
2093
2164
2239
2301
2347
2379
2391
2383
2359
2311
2261
2194
2123
2039
1971
1899
1831
1770
1723
1693
1672
1661
1675
1703
1737
1775
1827
1875
1911
1948
1981
2007
2021
2020
2014
2009
1992
1971
1949
1919
1895
1875
1853
1835
1815
1789
1781
1771
1766
1753
1755
1752
1749
1747
1763
1775
1803
1836
1893
1967
2053
2135
2222
2301
2365
2411
2445
2451
2429
2391
2339
2277
2205
2117
2041
1963
1883
1817
1765
1719
1690
1671
1671
1685
1711
1746
1787
1845
1881
1919
1965
1995
2010
2023
2026
2023
2011
1992
1975
1947
1917
1887
1867
1839
1820
1797
1781
1771
1763
1747
1749
1751
1750
1752
1771
1797
1835
1893
1964
2059
2155
2249
2341
2415
2471
2508
2520
2507
2472
2411
2344
2268
2187
2094
2015
1935
1856
1800
1751
1715
1691
1682
1691
1719
1751
1787
1833
1879
1917
1951
1988
2009
2019
2021
2017
2008
1994
1967
1948
1919
1887
1862
1839
1819
1801
