1776
1785
1801
1833
1868
1941
2026
2138
2259
2395
2525
2647
2744
2823
2868
2872
2840
2791
2715
2618
2495
2391
2267
2150
2023
1925
1831
1753
1677
1637
1611
1596
1596
1623
1655
1701
1742
1797
1849
1893
1919
1951
1967
1976
1965
1965
1944
1919
1890
1864
1837
1807
1771
1753
1733
1715
1694
1694
1686
1687
1683
1687
1699
1709
1712
1736
1747
1756
1759
1778
1787
1801
1807
1832
1876
1931
2007
2121
2251
2387
2522
2661
2775
2871
2927
2953
2939
2891
2800
2710
2597
2472
2335
2226
2105
1995
1887
1807
1739
1687
1640
1629
1625
1635
1647
1691
1735
1775
1817
1861
1903
1931
1945
1965
1966
1959
1933
1917
1896
1863
1824
1791
1772
1747
1709
1699
1684
1662
1652
1661
1663
1671
1674
1688
1705
1721
1727
1747
1763
1765
1769
1783
1787
1783
1784
1801
1813
1843
1887
1961
2073
2194
2332
2485
2623
2741
2843
2914
2938
2925
2888
2804
2715
2605
2475
2363
2249
2125
2012
1919
1832
1763
1695
1661
1642
1639
1637
1663
1693
1727
1767
1813
1865
1895
1917
1944
1967
1976
1967
1971
1955
1928
1897
1878
1844
1817
1784
1765
1751
1735
1719
1720
1720
1717
1721
1735
1747
1755
1756
1763
1775
1785
1784
1792
1800
1791
1791
1801
1799
1801
1797
1815
1851
1908
1981
2098
2222
2357
2503
2639
2751
2844
2895
2910
2893
2842
2745
2652
2540
2409
2281
2167
2055
1943
1839
1765
1703
1659
1627
1629
1642
1663
1707
1765
1828
1894
1951
2017
2083
2133
2165
2203
2219
2220
2212
2201
2175
2149
2104
2072
2029
1992
1949
1927
1899
1873
1852
1851
1837
1831
1815
1805
1805
1801
1784
1784
1781
1773
1779
1787
1791
1801
1801
1811
1827
1840
1855
1897
1956
2023
2124
2251
2380
2521
2643
2751
2846
2905
2920
2916
2876
2800
2711
2616
2503
2382
2253
2142
2039
1947
1851
1790
1741
1701
1685
1695
1707
1738
1770
1812
1861
1900
1931
1965
1983
1991
1993
1993
1983
1967
1942
1917
1895
1869
1833
1817
1788
1765
1747
1737
1721
1709
1693
1691
1693
1692
1685
1688
1687
1676
1676
1679
1679
1677
1669
1677
1682
1687
1685
1701
1719
1750
1803
1885
1989
2109
2237
2376
2509
2629
2712
2775
2805
2790
2743
2693
2605
2505
2385
2277
2171
2069
1963
1881
1805
1742
1695
1673
1657
1657
1663
1689
1735
1772
1818
1853
1893
1919
1946
1973
1982
1982
1972
1961
1946
1929
1895
1877
1849
1820
1790
1780
1765
1749
1727
1723
1723
1723
1717
1725
1727
1727
1733
1749
1752
1757
1757
1765
1775
1781
1778
1783
1783
1779
1773
1783
1783
1788
1801
1835
1899
1981
2088
2217
2351
2479
2605
2717
2788
2828
2830
2807
2751
2671
2567
2461
2343
2217
2102
2003
1903
1815
1735
1676
1639
1611
1590
1595
1615
1635
1669
1711
1749
1787
1819
1850
1879
1891
1892
1896
1885
1867
1845
1831
1811
1782
1751
1727
1714
1695
1673
1669
1656
1651
1643
1658
1659
1672
1676
1689
1707
1721
1723
1743
1753
1756
1765
1779
1783
1785
1783
1779
1780
1782
1765
1775
1769
1772
1781
1817
1867
1944
2039
2155
2301
2439
2565
2681
2775
2827
2843
2839
2795
2724
2617
2515
2406
2291
2167
2067
1961
1865
1781
1725
1683
1647
1625
1627
1645
1673
1702
1749
1788
1827
1865
1909
1939
1957
1961
1964
1963
1962
1945
1939
1917
1895
1871
1855
1835
1817
1799
1783
1771
1766
1751
1755
1756
1755
1759
1772
1779
1787
1789
1799
1815
1819
1817
1831
1833
1829
1831
1835
1835
1833
1828
1824
1831
1835
1839
1875
1925
1981
2084
2199
2323
2451
2565
2661
2743
2793
2792
2779
2731
2653
2553
2460
2347
2233
2111
2005
1909
1820
1737
1683
1628
1593
1576
1579
1593
1613
1635
1675
1719
1763
1799
1836
1867
1885
1893
1901
1899
1887
1863
1843
1823
1802
1767
1749
1724
1700
1676
1673
1661
1653
1641
1643
1655
1659
1669
1683
1691
1699
1711
1735
1743
1757
1757
1769
1783
1786
1785
1799
1802
1805
1807
1821
1831
1849
1877
1927
2004
2101
2206
2336
2463
2583
2677
2763
2807
2824
2796
2759
2684
2597
2475
2375
2261
2139
2024
1931
1839
1763
1691
1643
1613
1599
1589
1611
1638
1663
1705
1753
1801
1843
1875
1903
1933
1947
1948
1946
1932
1903
1880
1861
1830
1791
1769
1747
1737
1719
1701
1701
1692
1691
1686
1695
1703
1708
1712
1722
1743
1753
1756
1773
1786
1805
1803
1817
1819
1821
1819
1823
1837
1851
1877
1933
2005
2095
2207
2331
2451
2565
2651
2719
2773
2787
2763
2733
2668
2577
2473
2377
2267
2158
2045
1957
1869
1801
1733
1695
1669
1651
1654
1683
1709
1751
1785
1829
1877
1917
1946
1976
1996
1999
1996
1998
1983
1971
1943
1913
1895
1869
1835
1820
1799
1773
1757
1757
1751
1739
1737
1742
1751
1762
1759
1774
1785
1789
1801
1815
1832
1829
1824
1835
1843
1853
1869
1907
1957
2019
2107
2215
2329
2439
2539
2622
2695
2733
2735
2717
2677
2605
2518
2429
2329
2223
2112
2018
1928
1839
1759
1710
1660
1630
1618
1625
1645
1677
1707
1751
1801
1849
1884
1931
1962
1983
1997
2009
2011
1995
1976
1961
1945
1918
1886
1869
1847
1819
1798
1784
1770
1765
1755
1752
1755
1756
1752
1755
1764
1763
1767
1783
1787
1803
1804
1811
1821
1827
1823
1837
1853
1878
1913
1977
2059
2153
2249
2349
2453
2535
2596
2643
2651
2633
2589
2531
2457
2363
2260
2157
2069
1967
1869
1797
1719
1654
1609
1583
1573
1573
1576
1597
1639
1688
1719
1771
1818
1851
1882
1915
1931
1941
1919
1911
1897
1870
1833
1811
1780
1747
1715
1701
1682
1663
1645
1641
1643
1645
1645
1659
1675
1683
1692
1717
1733
1738
1751
1763
1775
1779
1774
1783
1781
1779
1775
1786
1798
1817
1845
1900
1983
2086
2195
2319
2430
2530
2611
2667
2685
2678
2637
2579
2503
2408
2293
2199
2095
1990
1891
1815
1747
1685
1629
1599
1591
1592
1597
1636
1660
1695
1743
1791
1833
1877
1899
1933
1950
1959
1959
1951
1943
1912
1891
1876
1847
1821
1791
1767
1753
1727
1706
1695
1683
1669
1657
1661
1663
1670
1663
1673
1688
1695
1699
1717
1723
1733
1736
1749
1754
1756
1755
1763
1773
1781
1789
1829
1881
1947
2041
2159
2281
2407
2515
2613
2687
2735
2743
2731
2687
2613
2519
2425
2318
2215
2099
1997
1909
1823
1747
1701
1661
1628
1622
1639
1661
1699
1734
1781
1836
1885
1919
1960
1989
1999
2003
2005
1991
1967
1931
1897
1864
1821
1773
1743
1707
1675
1644
1629
1614
1599
1588
1589
1593
1603
1609
1631
1643
1657
1681
1705
1726
1750
1759
1773
1797
1807
1811
1818
1821
1819
1817
1823
1831
1851
1883
1945
2031
2137
2249
2376
2489
2589
2665
2719
2739
2730
2679
2616
2537
2441
2326
2227
2119
2009
1909
1833
1763
1699
1647
1621
1613
1617
1621
1647
1691
1707
1746
1784
1823
1851
1869
1887
1900
1903
1893
1890
1875
1847
1821
1804
1780
1757
1724
1709
1703
1685
1673
1673
1669
1659
1657
1673
1675
1679
1679
1688
1702
1706
1704
1717
1719
1720
1719
1733
1733
1735
1721
1727
1743
1763
1789
1847
1929
2019
2134
2259
2385
2494
2585
2652
2697
2707
2681
2639
2578
2485
2389
2295
2196
2098
1993
1909
1836
1773
1711
1685
1660
1647
1651
1673
1695
1733
1764
1801
1839
1879
1899
1931
1944
1946
1947
1943
1927
1900
1877
1850
1831
1804
1771
1755
1737
1719
1703
1707
1705
1707
1709
1721
1740
1751
1757
1775
1787
1799
1805
1821
1831
1835
1833
1837
1851
1866
1887
1940
1995
2063
2159
2269
2377
2479
2571
2635
2683
2703
2687
2660
2601
2521
2428
2341
2239
2143
2037
1951
1877
1804
1741
1705
1679
1658
1659
1684
1707
1745
1782
1829
1881
1927
1955
1993
2013
2021
2023
2027
2013
1997
1967
1942
1917
1887
1851
1833
1810
1783
1763
1759
1752
1747
1741
1751
1763
1773
1771
1789
1799
1803
1813
1823
1832
1845
1847
1863
1892
1929
1975
2065
2151
2253
2363
2473
2572
2653
2698
2729
2736
2713
2652
2591
2503
2397
2297
2203
2105
2009
1913
1839
1783
1735
1699
1683
1677
1681
1701
1739
1779
1820
1862
1901
1944
1976
1990
2009
2012
2007
1993
1983
1964
1939
1907
1877
1853
1831
1803
1789
1772
1755
1741
1747
1749
1748
1751
1759
1771
1785
1787
1809
1817
1817
1820
1829
1833
1839
1839
1863
1893
1946
2011
2107
2216
2329
2445
2567
2657
2729
2767
2783
2775
2727
2655
2579
2479
2366
2257
2155
2057
1958
1867
1799
1746
1701
1669
1661
1668
1677
1703
1742
1781
1821
1851
1892
1926
1949
1951
1965
1965
1957
1945
1935
1917
1897
1867
1849
1839
1827
1816
1817
1817
1813
1819
1831
1833
1837
1835
1837
1843
1845
1837
1845
1848
1845
1847
1853
1853
1863
1863
1875
1909
1965
2021
2120
2229
2342
2457
2581
2677
2751
2795
2812
2808
2772
2699
2621
2535
2415
2309
2213
2107
2009
1911
1837
1781
1737
1696
1687
1689
1696
1723
1759
1799
1835
1867
1910
1944
1966
1977
1995
1995
1979
1964
1955
1933
1907
1871
1839
1822
1797
1766
1755
1739
1721
1712
1719
1719
1727
1721
1733
1743
1753
1758
1773
1784
1787
1791
1806
1807
1809
1803
1803
1812
1819
1829
1867
1913
1976
2069
2174
2281
2388
2475
2549
2607
2639
2631
2605
2551
2473
2382
2293
2189
2089
1981
1891
1811
1739
1663
1627
1593
1572
1565
1581
1605
1634
1660
1701
1753
1788
1817
1853
1877
1885
1893
1896
1883
1869
1844
1823
1809
1779
1751
1734
1711
1689
1672
1662
1651
1645
1637
1635
1647
1658
1655
1677
1689
1693
1701
1717
1727
1735
1737
1741
1752
1755
1750
1763
1757
1763
1775
1815
1867
1939
2021
2129
2249
2355
2455
2537
2597
2621
2617
2603
2549
2478
2387
2293
2199
2095
1991
1907
1821
1741
1678
1640
1607
1593
1588
1598
1629
1661
1692
1741
1781
1817
1851
1887
1911
1928
1929
1917
1913
1899
1876
1853
1832
1800
1767
1749
1721
1703
1675
1663
1655
1645
1635
1639
1639
1637
1643
1658
1671
1683
1685
1693
1707
1711
1709
1720
1722
1717
1721
1740
1757
1791
1837
1908
2005
2109
2220
2342
2451
2533
2601
2646
2659
2638
2587
2519
2442
2347
2237
2145
2045
1947
1854
1791
1727
1679
1637
1618
1623
1635
1653
1695
1741
1779
1823
1877
1917
1951
1972
1992
1999
2007
1991
1982
1967
1942
1913
1893
1867
1844
1819
1805
1789
1781
1767
1773
1772
1767
1771
1781
1787
1799
1801
1803
1819
1831
1827
1843
1845
1843
1845
1853
1863
1883
1915
1973
2057
2152
2255
2377
2487
2589
2669
2733
2767
2765
2729
2675
2611
2523
2413
2323
2220
2115
2014
1935
1853
1790
1733
1700
1685
1685
1685
1709
1741
1769
1807
1853
1893
1927
1947
1967
1983
1992
1976
1973
1957
1929
1903
1891
1866
1843
1814
1791
1781
1769
1751
1753
1755
1752
1752
1769
1779
1790
1799
1813
1829
1837
1837
1852
1861
1854
1855
1865
1869
1877
1891
1920
1979
2059
2145
2255
2361
2463
2556
2645
2701
2725
2712
2683
2637
2567
2461
2375
2269
2159
2063
1971
1887
1815
1741
1701
1675
1657
1647
1663
1687
1712
1752
1801
1837
1883
1915
1945
1973
1980
1977
1979
1965
1943
1913
1895
1865
1835
1806
1780
1767
1747
1721
1716
1709
1701
1701
1709
1717
1722
1727
1741
1757
1771
1767
1783
1787
1789
1799
1809
1815
1817
1819
1829
1853
1885
1931
2015
2111
2221
2347
2474
2590
2686
2751
2791
2805
2783
2727
2662
2572
2463
2357
2255
2147
2043
1943
1863
1801
1747
1700
1683
1671
1677
1687
1717
1757
1790
1833
1865
1903
1930
1945
1961
1963
1957
1943
1939
1913
1893
1855
1833
1817
1797
1767
1753
1739
1719
1710
1709
1709
1709
1709
1718
1735
1743
1743
1757
1771
1772
1775
1791
1801
1807
1803
1807
1813
1819
1817
1837
1866
1907
1979
2087
2197
2323
2439
2548
2653
2726
2760
2777
2750
2697
2619
2535
2425
2315
2196
2085
1981
1883
1779
1720
1662
1619
1584
1583
1593
1604
1624
1661
1711
1755
1799
1847
1885
1912
1933
1956
1963
1957
1939
1917
1897
1871
1833
1813
1781
1747
1721
1701
1691
1675
1656
1653
1659
1660
1659
1673
1677
1676
1677
1688
1691
1695
1692
1692
1695
1703
1695
1703
1705
1704
1708
1735
1765
1811
1879
1967
2089
2217
2349
2484
2602
2687
2748
2788
2779
2742
2675
2589
2493
2387
2265
2157
2055
1943
1843
1769
1701
1651
1611
1593
1597
1614
1635
1684
1735
1773
1827
1883
1927
1957
1975
1994
2003
1992
1981
1975
1951
1916
1885
1865
1836
1813
1783
1766
1751
1739
1720
1719
1715
1717
1717
1735
1748
1765
1775
1799
1822
1843
1849
1870
1880
1879
1879
1883
1878
1869
1853
1855
1879
1911
1957
2038
2137
2245
2357
2469
2565
2635
2679
2698
2693
2653
2585
2515
2423
2316
2213
2121
2022
1931
1833
1763
1709
1661
1624
1626
1613
1629
1653
1701
1740
1783
1823
1864
1909
1939
1950
1971
1967
1962
1945
1939
1914
1892
1861
1835
1817
1799
1767
1757
1749
1727
1720
1728
1735
1739
1747
1757
1775
1789
1800
1817
1830
1832
1837
1847
1849
1851
1845
1844
1853
1867
1880
1927
1992
2075
2173
2296
2425
2527
2615
2693
2741
2759
2732
2701
2635
2543
2445
2354
2250
2151
2043
1951
1876
1805
1740
1706
1679
1662
1661
1687
1716
1755
1790
1835
1891
1941
1964
2003
2021
2025
2026
2026
2011
1993
1963
1939
1915
1885
1850
1833
1811
1784
1767
1766
1757
1753
1748
1751
1763
1769
1772
1789
1804
1804
1814
1827
1833
1833
1832
1831
1837
1836
1833
1845
1867
1893
1949
2031
2131
2238
2355
2469
2583
2667
2724
2763
2759
2725
2662
2595
2493
2391
2268
2157
2059
1957
1853
1785
1719
1661
1624
1611
1609
1621
1635
1673
1715
1759
1801
1845
1883
1903
1927
1944
1945
1943
1917
1899
1881
1855
1821
1800
1772
1745
1722
1711
1696
1691
1676
1677
1685
1688
1689
1704
1711
1716
1724
1741
1753
1757
1755
1763
1771
1775
1769
1779
1775
1779
1781
1805
1833
1881
1955
2055
2173
2311
2440
2571
2671
2745
2797
2813
2803
2758
2677
2589
2485
2376
2249
2147
2031
1929
1833
1763
1702
1655
1619
1607
1614
1630
1655
1702
1749
1789
1832
1881
1915
1949
1961
1975
1979
1974
1951
1939
1912
1877
1843
1819
1784
1756
1719
1702
1689
1677
1657
1659
1657
1653
1657
1675
1679
1687
1687
1694
1709
1719
1721
1736
1740
1735
1733
1743
1739
1741
1739
1743
1755
1773
1804
1871
1955
2056
2171
2301
2424
2534
2618
2677
2715
2708
2663
2604
2519
2411
2296
2191
2079
1965
1861
1768
1691
1627
1574
1547
1529
1528
1545
1580
1617
1661
1707
1753
1805
1845
1869
1901
1917
1916
1909
1903
1884
1865
1829
1801
1773
1743
1706
1688
1669
1643
1639
1635
1630
1631
1629
1639
1651
1662
1673
1689
1703
1706
1719
1741
1753
1765
1764
1773
1783
1787
1786
1799
1803
1807
1832
1884
1947
2035
2140
2263
2392
2509
2607
2699
2748
2763
2747
2717
2649
2567
2455
2347
2239
2132
2013
1917
1831
1752
1683
1645
1621
1609
1609
1625
1660
1703
1749
1805
1852
1895
1934
1964
1989
1996
1993
1983
1978
1961
1929
1907
1882
1847
1823
1809
1784
1767
1750
1747
1746
1749
1745
1757
1767
1772
1783
1803
1816
1828
1831
1839
1859
1867
1864
1875
1876
1875
1875
1892
1914
1957
2011
2100
2207
2325
2441
2566
2665
2743
2797
2831
2825
2787
2716
2636
2538
2426
2310
2203
2095
1983
1891
1819
1753
1703
1661
1647
1652
1661
1687
1734
1781
1830
1879
1933
1972
2009
2027
2040
2054
2045
2028
2015
1992
1959
1929
1907
1879
1851
1821
1805
1799
1785
1770
1775
1775
1779
1779
1807
1821
1835
1847
1853
1879
1886
1891
1900
1907
1901
1898
1911
1919
1943
1975
2038
2131
2229
2338
2459
2567
2653
2727
2776
2791
2779
2731
2665
2587
2489
2379
2279
2171
2067
1965
1891
1816
1755
1703
1677
1672
1677
1688
1725
1764
1801
1839
1898
1941
1976
1997
2015
2031
2035
2023
2011
1992
1957
1927
1899
1865
1831
1797
1768
1750
1727
1708
1705
1703
1695
1701
1715
1727
1739
1743
1759
1779
1791
1804
1821
1835
1844
1853
1875
1881
1891
1893
1911
1944
1988
2041
2137
2237
2342
2453
2555
2639
2705
2731
2735
2718
2665
2584
2501
2395
2279
2163
2067
1960
1869
1775
1707
1660
1624
1595
1597
1608
1624
1659
1705
1751
1797
1833
1874
1913
1945
1957
1975
1977
1965
1951
1935
1915
1887
1853
1832
1815
1789
1765
1756
1741
1721
1709
1715
1711
1715
1717
1723
1741
1751
1753
1771
1783
1787
1800
1812
1817
1821
1816
1817
1821
1819
1807
1811
1812
1816
1837
1895
1963
2059
2159
2280
2405
2518
2602
2675
2715
2716
2687
2649
2575
2483
2366
2263
2155
2045
1939
1853
1769
1696
1643
1619
1595
1589
1595
1621
1657
1701
1739
1785
1831
1867
1899
1933
1950
1959
1951
1946
1939
1916
1883
1871
1843
1807
1781
1763
1741
1720
1696
1687
1688
1685
1677
1686
1692
1699
1705
1721
1736
1749
1752
1763
1771
1781
1779
1783
1783
1775
1770
1772
1767
1767
1755
1757
1771
1797
1833
1907
1997
2106
2219
2343
2456
2549
2617
2659
2677
2661
2603
2539
2451
2334
2223
2120
2011
1909
1811
1735
1677
1619
1573
1559
1553
1555
1575
1613
1651
1693
1735
1780
1823
1861
1881
1907
1913
1909
1897
1895
1877
1855
1823
1803
1783
1757
1734
1718
1702
1685
1675
1675
1672
1671
1669
1675
1685
1693
1699
1712
1725
1733
1741
1756
1764
1767
1765
1769
1773
1775
1767
1771
1768
1767
1772
1798
1827
1881
1951
2057
2169
2294
2409
2523
2617
2676
2707
2717
2691
2637
2543
2454
2354
2245
2124
2024
1919
1819
1736
1674
1619
1579
1553
1549
1567
1590
1619
1669
1711
1759
1802
1851
1885
1910
1915
1925
1927
1914
1893
1881
1851
1819
1787
1769
1745
1721
1694
1685
1677
1671
1661
1673
1674
1677
1687
1705
1715
1735
1743
1760
1775
1787
1789
1806
1815
1812
1816
1827
1833
1843
1865
1904
1971
2059
2162
2280
2397
2507
2605
2686
2740
2761
2745
2710
2653
2579
2471
2377
2268
2154
2045
1959
1870
1791
1721
1675
1641
1635
1627
1646
1671
1699
1739
1788
1833
1877
1908
1935
1965
1977
1975
1977
1965
1946
1926
1901
1880
1849
1817
1790
1772
1753
1735
1725
1723
1719
1725
1735
1743
1753
1757
1769
1785
1799
1799
1813
1816
1815
1819
1828
1833
1837
1849
1879
1935
2007
2099
2208
2325
2439
2543
2643
2711
2748
2751
2733
2687
2617
2519
2425
2319
2203
2093
1999
1907
1823
1740
1689
1655
1636
1619
1635
1655
1683
1723
1773
1817
1854
1893
1919
1951
1971
1973
1979
1972
1955
1933
1914
1891
1865
1830
1807
1783
1765
1741
1733
1723
1716
1715
1723
1725
1739
1741
1756
1773
1787
1790
1811
1821
1821
1828
1839
1838
1839
1837
1839
1855
1879
1911
1981
2067
2171
2297
2429
2551
2663
2745
2803
2840
2837
2789
2733
2647
2541
2429
2325
2217
2100
1992
1899
1824
1763
1707
1683
1663
1656
1661
1689
1723
1758
1799
1846
1887
1925
1948
1973
1984
1983
1977
1971
1951
1929
1897
1869
1846
1821
1787
1772
1756
1739
1724
1724
1723
1727
1725
1743
1749
1759
1764
1781
1790
1791
1803
1816
1821
1821
1816
1815
1820
1820
1810
1818
1819
1821
1847
1897
1973
2068
2181
2300
2431
2551
2648
2729
2775
2781
2763
2719
2643
2549
2431
2325
2215
2105
1989
1897
1811
1733
1671
1629
1607
1594
1592
1611
1646
1686
1725
1784
1834
1879
1911
1947
1966
1975
1967
1958
1947
1919
1882
1854
1816
1773
1727
1701
1671
1639
1609
1595
1587
1577
1567
1577
1587
1593
1615
1643
1670
1692
1709
1735
1756
1769
1767
1773
1772
1757
1753
1753
1743
1741
1742
1763
1813
1883
1971
2091
2217
2346
2471
2588
2669
2728
2743
2731
2696
2623
2525
2427
2312
2188
2063
1955
1849
1755
1669
1607
1563
1529
1513
1524
1548
1575
1621
1678
1737
1798
1842
1893
1941
1972
1983
2003
2005
1995
1977
1967
1948
1928
1899
1879
1864
1844
1815
1805
1791
1775
1767
1763
1755
1751
1737
1737
1736
1736
1726
1735
1737
1735
1737
1749
1755
1765
1767
1779
1801
1819
1844
1897
1964
2043
2147
2260
2365
2471
2554
2620
2664
2671
2647
2601
2527
2427
2327
2223
2119
2011
1899
1807
1727
1659
1593
1559
1527
1512
1509
1527
1558
1592
1628
1683
1737
1790
1832
1881
1911
1935
1959
1979
1991
1995
1983
1979
1977
1967
1949
1945
1931
1912
1897
1891
1877
1864
1843
1833
1835
1834
1829
1832
1833
1835
1832
1843
1846
1847
1845
1846
1855
1864
1869
1899
1945
2003
2084
2182
2283
2386
2467
2536
2587
2606
2580
2540
2471
2377
2263
2143
2019
1894
1773
1678
1599
1530
1469
1438
1422
1417
1427
1465
1511
1573
1624
1689
1759
1823
1877
1931
1972
1995
2011
2025
2023
2011
1983
1964
1945
1913
1881
1863
1835
1805
1779
1767
1753
1741
1723
1718
1719
1719
1715
1727
1739
1745
1753
1770
1780
1787
1791
1803
1817
1828
1836
1879
1929
1997
2093
2211
2335
2468
2586
2683
2771
2823
2828
2821
2770
2681
2585
2477
2359
2235
2107
1993
1887
1797
1703
1641
1592
1560
1548
1563
1587
1627
1671
1725
1787
1839
1883
1933
1965
1981
1994
2009
2005
1995
1971
1949
1933
1912
1881
1867
1847
1822
1806
1801
1787
1784
1773
1771
1769
1774
1768
1780
1782
1787
1788
1803
1812
1815
1813
1816
1821
1831
1830
1851
1885
1931
2007
2105
2213
2327
2427
2525
2607
2661
2671
2667
2631
2557
2471
2379
2269
2157
2041
1937
1843
1757
1677
1625
1579
1545
1519
1542
1561
1594
1624
1673
1725
1771
1813
1853
1885
1899
1907
1913
1909
1895
1865
1840
1817
1787
1749
1734
1709
1691
1675
1675
1673
1675
1676
1686
1702
1717
1720
1743
1757
1765
1773
1797
1805
1813
1813
1820
1831
1829
1827
1837
1843
1851
1875
1913
1965
2039
2127
2227
2342
2445
2533
2607
2648
2655
2635
2599
2520
2424
2311
2201
2087
1959
1837
1746
1651
1568
1503
1466
1447
1440
1449
1479
1525
1583
1639
1711
1779
1843
1901
1957
1995
2027
2030
2045
2053
2037
2012
1997
1967
1933
1903
1890
1863
1845
1828
1816
1816
1815
1805
1812
1815
1817
1822
1831
1833
1837
1831
1833
1833
1831
1817
1821
1815
1805
1803
1819
1835
1875
1927
2009
2119
2233
2348
2472
2575
2645
2701
2727
2712
2671
2595
2505
2407
2296
2171
2075
1961
1851
1763
1693
1637
1597
1567
1561
1577
1605
1638
1691
1747
1799
1849
1909
1956
1993
2011
2025
2029
2021
1995
1975
1945
1908
1871
1845
1813
1781
1751
1721
1707
1689
1669
1662
1656
1647
1645
1655
1663
1676
1675
1687
1701
1711
1719
1737
1748
1755
1767
1785
1805
1839
1882
1951
2056
2165
2287
2419
2535
2633
2705
2750
2763
2735
2671
2590
2489
2377
2251
2137
2015
1903
1799
1717
1647
1595
1555
1531
1545
1560
1582
1634
1685
1739
1799
1869
1927
1975
2009
2039
2069
2077
2072
2067
2043
2013
1979
1957
1928
1895
1861
1835
1817
1798
1771
1769
1767
1764
1775
1797
1815
1834
1849
1865
1891
1899
1901
1914
1913
1903
1897
1901
1899
1907
1929
1976
2059
2153
2265
2389
2505
2612
2699
2766
2799
2799
2766
2711
2634
2533
2415
2315
2199
2085
1972
1882
1797
1721
1657
1621
1606
1605
1618
1650
1691
1739
1791
1849
1901
1947
1974
1999
2022
2029
2021
2013
2003
1963
1933
1915
1885
1855
1823
1805
1789
1775
1764
1769
1767
1767
1772
1790
1805
1820
1829
1845
1867
1880
1883
1896
1899
1891
1885
1897
1909
1913
1941
2003
2077
2169
2275
2388
2487
2569
2632
2671
2679
2655
2598
2519
2425
2323
2197
2090
1975
1867
1763
1686
1619
1563
1516
1503
1510
1531
1568
1623
1683
1743
1813
1885
1945
1991
2023
2045
2068
2071
2055
2037
2009
1972
1938
1907
1864
1832
1799
1770
1756
1741
1720
1723
1719
1709
1720
1736
1746
1757
1767
1784
1811
1827
1836
1853
1865
1873
1879
1897
1907
1932
1970
2028
2123
2227
2340
2454
2557
2648
2715
2762
2770
2747
2685
2607
2519
2407
2283
2173
2066
1950
1851
1773
1703
1643
1592
1565
1567
1577
1593
1639
1685
1737
1797
1861
1914
1961
1996
2021
2039
2043
2027
2019
1983
1948
1903
1871
1824
1786
1733
1692
1663
1635
1611
1611
1609
1609
1619
1644
1662
1689
1709
1740
1769
1791
1807
1834
1847
1853
1865
1882
1899
1935
1976
2045
2137
2237
2335
2439
2523
2591
2636
2664
2659
2628
2557
2487
2407
2311
2199
2103
1999
1897
1807
1736
1672
1621
1576
1555
1555
1565
1581
1624
1663
1707
1753
1811
1845
1882
1903
1919
1941
1941
1925
1913
1895
1863
1831
1805
1779
1751
1718
1701
1687
1673
1652
1647
1642
1637
1631
1643
1646
1655
1652
1663
1681
1691
1693
1709
1720
1726
1747
1785
1838
1915
2005
2109
2221
2329
2413
2493
2542
2557
2551
2523
2467
2389
2287
2187
2089
1981
1871
1781
1699
1621
1559
1519
1497
1486
1491
1511
1551
1597
1647
1716
1771
1828
1879
1935
1967
1998
2007
2011
2011
1997
1971
1955
1927
1887
1865
1832
1806
1783
1755
1746
1739
1735
1723
1733
1727
1723
1726
1739
1737
1741
1738
1747
1755
1765
1771
1805
1847
1906
1993
2101
2211
2328
2427
2522
2602
2651
2661
2654
2619
2543
2461
2366
2262
2148
2024
1913
1814
1718
1628
1571
1519
1486
1479
1495
1514
1557
1591
1641
1693
1743
1781
1827
1851
1869
1880
1891
1889
1881
1864
1849
1843
1833
1818
1819
1815
1811
1813
1819
1827
1831
1831
1846
1847
1855
1853
1867
1873
1865
1864
1877
1882
1903
1933
1997
2087
2185
2283
2399
2505
2585
2649
2693
2696
2674
2613
2537
2453
2349
2233
2131
2023
1917
1823
1755
1688
1639
1608
1592
1605
1623
1660
1704
1757
1813
1865
1927
1971
2007
2029
2043
2056
2045
2023
2007
1976
1941
1903
1879
1849
1821
1785
1765
1751
1737
1719
1722
1721
1720
1723
1741
1752
1767
1769
1791
1811
1823
1840
1881
1933
1998
2100
2218
2345
2476
2605
2700
2789
2841
2852
2841
2794
2715
2617
2519
2404
2281
2155
2043
1945
1847
1765
1715
1675
1645
1639
1653
1674
1705
1741
1783
1833
1876
1900
1935
1955
1959
1959
1957
1945
1930
1900
1879
1861
1833
1803
1789
1773
1757
1749
1749
1740
1743
1737
1739
1754
1762
1763
1775
1785
1787
1797
1811
1821
1835
1852
1900
1971
2069
2171
2297
2425
2537
2638
2717
2760
2773
2740
2686
2615
2519
2399
2296
2184
2069
1959
1877
1797
1727
1673
1639
1627
1625
1637
1673
1709
1752
1801
1862
1909
1955
1989
2013
2035
2040
2031
2024
2005
1971
1944
1915
1885
1855
1819
1797
1775
1759
1741
1740
1737
1727
1725
1745
1748
1763
1757
1769
1781
1787
1789
1803
1813
1813
1819
1837
1863
1901
1958
2043
2156
2276
2393
2517
2617
2695
2747
2772
2760
2715
2634
2547
2447
2341
2213
2104
1997
1891
1800
1725
1663
1615
1579
1568
1575
1593
1615
1657
1701
1743
1783
1833
1871
1902
1917
1933
1943
1938
1915
1901
1881
1845
1816
1799
1767
1743
1708
1689
1683
1669
1654
1657
1661
1659
1663
1683
1693
1706
1716
1726
1745
1755
1755
1770
1771
1771
1773
1782
1786
1803
1830
1881
1959
2059
2167
2295
2411
2509
2599
2661
2687
2685
2645
2585
2505
2404
2285
2181
2071
1948
1839
1753
1673
1606
1547
1513
1508
1514
1529
1575
1621
1672
1725
1787
1843
1891
1919
1949
1967
1977
1971
1966
1947
1919
1893
1875
1845
1815
1780
1759
1748
1735
1710
1709
1709
1705
1709
1722
1735
1749
1753
1767
1785
1799
1801
1816
1823
1819
1819
1833
1851
1875
1911
1975
2063
2163
2266
2375
2471
2543
2599
2636
2633
2605
2539
2467
2379
2275
2157
2060
1949
1849
1758
1691
1627
1581
1546
1528
1545
1559
1587
1637
1689
1737
1788
1847
1893
1929
1945
1959
1973
1968
1949
1939
1912
1881
1853
1831
1801
1775
1751
1720
1717
1715
1703
1709
1712
1716
1723
1747
1755
1769
1775
1799
1809
1819
1821
1835
1839
1845
1861
1898
1949
2024
2111
2227
2351
2471
2581
2676
2743
2771
2772
2747
2687
2607
2495
2391
2281
2167
2053
1955
1860
1771
1701
1647
1619
1604
1595
1612
1645
1685
1723
1781
1833
1877
1913
1950
1975
1990
1989
1979
1979
1951
1919
1900
1875
1837
1811
1791
1771
1755
1735
1724
1721
1720
1712
1720
1726
1733
1743
1757
1767
1781
1780
1790
1803
1813
1812
1823
1831
1836
1851
1892
1951
2036
2137
2259
2395
2520
2629
2719
2780
2805
2798
2773
2707
2618
2505
2392
2277
2158
2037
1939
1844
1757
1692
1653
1623
1607
1600
1619
1651
1693
1737
1797
1845
1883
1927
1959
1980
1993
1983
1979
1967
1949
1914
1895
1861
1829
1789
1771
1747
1721
1699
1689
1689
1685
1677
1687
1693
1699
1707
1724
1739
1750
1755
1767
1779
1783
1784
1791
1803
1801
1803
1815
1827
1851
1891
1959
2059
2169
2283
2413
2525
2623
2701
2759
2759
2739
2680
2606
2509
2397
2264
2153
2030
1913
1809
1727
1657
1607
1563
1547
1557
1575
1597
1643
1693
1745
1792
1851
1892
1930
1943
1956
1963
1957
1937
1917
1895
1861
1829
1811
1783
1758
1735
1719
1715
1708
1701
1707
1709
1709
1717
1727
1741
1747
1747
1756
1769
1776
1772
1783
1785
1779
1775
1784
1781
1781
1779
1783
1803
1829
1874
1947
2040
2151
2269
2391
2495
2585
2636
2662
2661
2623
2550
2471
2375
2259
2139
2035
1931
1831
1736
1657
1605
1561
1519
1514
1517
1529
1563
1613
1661
1719
1771
1823
1882
1925
1946
1973
1988
1982
1971
1959
1935
1909
1869
1839
1818
1791
1767
1755
1741
1723
1721
1735
1739
1743
1749
1757
1771
1783
1787
1807
1820
1823
1833
1845
1849
1855
1848
1845
1849
1845
1832
1835
1835
1833
1851
1894
1957
2039
2137
2247
2361
2461
2539
2611
2639
2637
2603
2551
2476
2385
2268
2159
2065
1951
1851
1769
1703
1639
1594
1581
1573
1578
1595
1628
1677
1733
1775
1835
1890
1929
1965
2003
2023
2031
2031
2026
2011
1994
1960
1932
1900
1863
1829
1811
1783
1767
1746
1737
1735
1725
1718
1725
1736
1740
1748
1763
1771
1780
1785
1801
1811
1817
1817
1831
1835
1847
1846
1860
1869
1885
1915
1964
2043
2137
2229
2341
2441
2524
2603
2659
2682
2682
2632
2588
2514
2423
2315
2221
2123
2020
1928
1851
1781
1726
1679
1657
1655
1661
1677
1716
1758
1799
1848
1903
1951
1993
2021
2044
2063
2065
2044
2032
2012
1978
1941
1911
1879
1845
1807
1781
1768
1752
1737
1737
1735
1728
1733
1748
1756
1771
1783
1789
1813
1820
1823
1836
1837
1835
1835
1839
1837
1834
1828
1833
1848
1877
1912
1981
2068
2156
2261
2367
2462
2547
2606
2647
2662
2645
2599
2539
2459
2360
2259
2169
2071
1979
1885
1816
1763
1717
1688
1673
1671
1679
1701
1742
1783
1832
1874
1913
1963
1997
2019
2043
2055
2052
2035
2027
2008
1979
1945
1912
1884
1853
1823
1805
1784
1767
1754
1757
1754
1755
1756
1765
1779
1791
1800
1818
1833
1839
1851
1869
1871
1877
1874
1875
1878
1881
1883
1901
1935
1978
2053
2146
2247
2343
2432
2518
2589
2631
2635
2631
2589
2523
2444
2357
2262
2163
2059
1963
1883
1813
1739
1695
1659
1635
1628
1643
1662
1695
1737
1782
1833
1881
1915
1961
1991
2003
2009
2013
2007
1992
1960
1935
1909
1880
1849
1821
1797
1762
1739
1722
1706
1694
1677
1671
1677
1683
1682
1693
1703
1707
1717
1738
1747
1762
1766
1778
1799
1811
1819
1848
1885
1935
2008
2109
2214
2327
2441
2543
2638
2712
2747
2769
2745
2693
2614
2527
2427
2319
2196
2090
1991
1895
1801
1736
1677
1624
1594
1589
1592
1611
1638
1677
1735
1785
1834
1885
1933
1961
1981
2004
2012
2011
1995
1989
1975
1957
1928
1911
1887
1864
1848
1839
1830
1822
1813
1814
1819
1823
1820
1834
1847
1851
1862
1881
1892
1899
1902
1912
1919
1928
1931
1948
1971
2007
2068
2147
2237
2335
2427
2520
2601
2653
2675
2680
2649
2591
2514
2431
2333
2231
2120
2019
1929
1843
1764
1705
1657
1619
1599
1603
1613
1639
1663
1706
1754
1801
1835
1881
1911
1933
1949
1971
1975
1977
1961
1943
1929
1900
1866
1839
1812
1781
1756
1743
1725
1711
1695
1695
1701
1706
1709
1735
1746
1755
1767
1785
1799
1805
1805
1809
1819
1820
1823
1853
1895
1941
2018
2119
2219
2329
2431
2531
2603
2651
2667
2661
2631
2568
2487
2407
2315
2215
2109
2019
1934
1861
1791
1743
1708
1687
1679
1691
1707
1740
1767
1807
1851
1902
1925
1957
1975
1979
1983
1989
1981
1965
1943
1918
1901
1886
1863
1851
1837
1819
1809
1806
1802
1790
1783
1780
1787
1785
1774
1781
1775
1771
1767
1770
1766
1765
1756
1757
1768
1771
1773
1790
1813
1836
1883
1948
2025
2123
2213
2311
2395
2467
2507
2535
2531
2505
2451
2391
2312
2217
2111
2010
1917
1819
1718
1645
1577
1511
1461
1446
1433
1438
1456
1491
1549
1595
1644
1702
1748
1783
1816
1848
1862
1855
1843
1827
1807
1781
1741
1717
1687
1655
1629
1615
1599
1588
1573
1568
1571
1575
1573
1589
1606
1611
1625
1648
1671
1688
1701
1721
1748
1765
1779
1811
1852
1901
1980
2085
2197
2315
2424
2521
2605
2659
2668
2666
2621
2549
2462
2367
2267
2157
2039
1944
1853
1771
1693
1644
1603
1575
1565
1575
1596
1627
1659
1707
1761
1805
1843
1881
1911
1919
1931
1939
1931
1914
1893
1881
1862
1839
1815
1807
1797
1779
1779
1783
1790
1801
1804
1819
1837
1853
1853
1876
1881
1881
1879
1877
1869
1863
1844
1836
1845
1865
1893
1955
2030
2123
2219
2327
2415
2489
2537
2567
2571
2537
2477
2410
2323
2216
2117
2018
1919
1831
1739
1671
1621
1573
1529
1523
1519
1531
1559
1594
1629
1677
1715
1757
1801
1829
1845
1865
1871
1861
1848
1839
1821
1803
1775
1759
1749
1735
1715
1710
1705
1695
1695
1707
1712
1722
1725
1738
1752
1765
1767
1783
1797
1799
1807
1821
1837
1865
1903
1967
2065
2167
2279
2402
2505
2595
2659
2701
2711
2683
2622
2543
2457
2351
2232
2130
2019
1911
1819
1746
1677
1628
1587
1567
1575
1583
1607
1652
1695
1749
1803
1861
1903
1942
1959
1975
1988
1982
1963
1947
1929
1895
1861
1833
1803
1767
1735
1710
1693
1677
1655
1655
1652
1641
1643
1656
1661
1677
1684
1691
1717
1727
1737
1762
1779
1799
1827
1880
1947
2039
2151
2275
2409
2535
2639
2729
2787
2805
2799
2765
2701
2613
2507
2397
2291
2182
2073
1980
1900
1830
1773
1741
1717
1708
1709
1727
1762
1798
1831
1884
1929
1965
1997
2038
2060
2074
2075
2073
2070
2060
2037
2022
1999
1976
1949
1931
1909
1883
1854
1839
1829
1817
1805
1804
1806
1783
1799
1805
1811
1816
1810
1807
1817
1819
1813
1815
1814
1815
1823
1852
1901
1975
2058
2159
2276
2387
2477
2569
2620
2644
2638
2607
2544
2463
2356
2258
2141
2026
1913
1819
1727
1647
1579
1541
1500
1485
1483
1496
1527
1571
1612
1673
1720
1767
1817
1864
1895
1917
1929
1933
1933
1925
1897
1881
1853
1819
1785
1767
1739
1716
1691
1679
1673
1671
1663
1671
1677
1677
1687
1707
1726
1750
1769
1791
1829
1849
1873
1897
1913
1927
1941
1973
2015
2083
2157
2255
2367
2478
2585
2675
2744
2782
2787
2766
2711
2635
2525
2423
2311
2188
2063
1959
1863
1767
1699
1651
1611
1589
1579
1591
1624
1658
1700
1755
1807
1851
1901
1943
1973
1995
1997
2001
2003
1983
1962
1947
1919
1891
1865
1847
1827
1805
1781
1773
1767
1769
1764
1771
1775
1779
1785
1804
1815
1827
1831
1839
1854
1867
1867
1885
1900
1925
1971
2045
2136
2239
2352
2467
2582
2665
2728
2767
2775
2735
2687
2623
2531
2425
2313
2205
2105
2004
1897
1820
1747
1679
1634
1617
1606
1611
1627
1657
1707
1757
1804
1861
1911
1949
1983
2023
2029
2040
2027
2013
1998
1973
1939
1913
1882
1845
1812
1791
1767
1747
1723
1709
1709
1705
1701
1707
1715
1716
1717
1737
1742
1751
1752
1765
1782
1811
1837
1899
1979
2075
2184
2315
2426
2532
2616
2675
2717
2718
2683
2635
2550
2451
2339
2231
2121
2009
1899
1806
1728
1663
1609
1587
1565
1565
1581
1619
1656
1705
1755
1809
1863
1904
1939
1975
1988
1993
1991
1983
1967
1946
1911
1880
1853
1819
1785
1766
1746
1723
1708
1709
1705
1703
1700
1705
1721
1735
1741
1766
1781
1784
1799
1813
1819
1823
1827
1837
1863
1899
1951
2037
2135
2239
2349
2463
2553
2628
2663
2675
2665
2619
2541
2463
2361
2246
2131
2028
1932
1835
1749
1678
1633
1594
1567
1567
1579
1596
1631
1683
1727
1782
1827
1869
1910
1941
1955
1973
1977
1965
1949
1937
1913
1887
1851
1824
1803
1780
1751
1736
1723
1711
1703
1709
1715
1717
1717
1734
1743
1751
1757
1773
1785
1788
1797
1809
1813
1815
1816
1823
1835
1851
1879
1931
2005
2095
2199
2319
2424
2523
2596
2647
2671
2669
2633
2583
2504
2409
2311
2221
2125
2030
1938
1862
1799
1741
1691
1671
1656
1652
1663
1695
1723
1764
1799
1833
1877
1903
1925
1945
1956
1957
1941
1935
1912
1887
1862
1835
1819
1797
1769
1755
1739
1717
1699
1695
1687
1683
1671
1673
1675
1677
1679
1693
1701
1705
1717
1727
1741
1750
1747
1756
1757
1763
1764
1781
1813
1849
1918
2012
2116
2219
2323
2415
2493
2541
2555
2549
2509
2444
2358
2267
2159
2057
1943
1843
1763
1688
1621
1581
1553
1529
1527
1554
1577
1614
1652
1705
1757
1811
1849
1896
1927
1947
1961
1974
1976
1965
1945
1931
1915
1893
1867
1851
1832
1810
1788
1783
1770
1768
1756
1757
1765
1773
1773
1789
1797
1799
1803
1816
1823
1831
1830
1839
1853
1861
1855
1871
1883
1898
1935
1993
2063
2147
2237
2332
2431
2513
2573
2615
2623
2603
2557
2504
2428
2341
2239
2151
2059
1973
1883
1823
1767
1719
1688
1683
1683
1691
1709
1755
1799
1837
1879
1919
1959
1977
1995
2011
2011
2003
1977
1957
1935
1899
1863
1835
1800
1763
1735
1719
1703
1695
1688
1695
1709
1720
1727
1753
1769
1781
1799
1818
1833
1847
1851
1860
1864
1865
1855
1865
1861
1863
1863
1884
1911
1955
2015
2093
2188
2283
2366
2451
2516
2550
2571
2573
2523
2463
2386
2300
2216
2122
2020
1943
1865
1787
1725
1689
1657
1641
1636
1647
1677
1708
1740
1783
1823
1861
1895
1933
1949
1964
1962
1957
1951
1931
1896
1877
1844
1805
1774
1755
1733
1712
1693
1679
1676
1673
1669
1677
1687
1687
1693
1705
1709
1711
1709
1711
1719
1717
1711
1715
1715
1709
1716
1727
1753
1767
1818
1877
1967
2075
2181
2287
2389
2469
2523
2565
2568
2539
2477
2409
2327
2230
2123
2025
1931
1837
1751
1687
1625
1583
1555
1554
1565
1592
1629
1685
1741
1797
1848
1903
1945
1981
1999
2011
2012
2009
1981
1967
1941
1903
1875
1851
1829
1807
1782
1769
1764
1755
1746
1752
1751
1747
1749
1754
1757
1757
1752
1753
1759
1759
1753
1757
1755
1753
1743
1750
1757
1775
1805
1868
1959
2071
2187
2317
2441
2543
2635
2707
2739
2744
2710
2661
2598
2507
2405
2315
2211
2105
2005
1919
1839
1771
1705
1661
1639
1637
1627
1654
1689
1735
1789
1852
1912
1965
2008
2041
2079
2098
2094
2095
2085
2057
2027
2003
1967
1931
1894
1855
1828
1798
1761
1743
1725
1711
1707
1718
1726
1741
1751
1773
1804
1831
1848
1878
1901
1927
1960
2012
2077
2153
2239
2344
2459
2571
2655
2733
2788
2809
2804
2777
2726
2651
2543
2447
2348
2245
2134
2043
1956
1877
1811
1769
1738
1717
1709
1716
1743
1769
1800
1849
1891
1927
1962
1998
2023
2041
2043
2045
2043
2032
2007
1987
1958
1915
1883
1855
1827
1804
1771
1763
1763
1764
1763
1775
1785
1789
1802
1815
1820
1824
1821
1827
1829
1831
1827
1848
1881
1932
2008
2116
2223
2344
2455
2551
2636
2685
2695
2681
2637
2565
2473
2380
2277
2167
2063
1967
1895
1823
1765
1727
1703
1687
1690
1717
1748
1782
1823
1875
1925
1967
2002
2035
2058
2063
2065
2063
2041
2021
1991
1961
1933
1899
1863
1838
1815
1787
1767
1762
1751
1747
1739
1740
1753
1757
1763
1779
1791
1799
1807
1831
1837
1851
1855
1879
1909
1956
2015
2108
2207
2319
2439
2556
2659
2732
2775
2792
2783
2735
2661
2579
2473
2360
2247
2141
2037
1943
1845
1769
1709
1656
1613
1595
1591
1590
1605
1629
1661
1695
1725
1765
1803
1829
1849
1871
1881
1882
1875
1875
1853
1834
1807
1784
1767
1749
1717
1705
1691
1671
1659
1661
1663
1675
1683
1696
1715
1726
1740
1755
1767
1771
1773
1784
1787
1799
1798
1812
1845
1899
1971
2075
2189
2311
2427
2541
2631
2692
2719
2719
2695
2639
2549
2463
2364
2254
2147
2057
1960
1880
1799
1738
1689
1655
1627
1625
1623
1625
1641
1674
1703
1727
1757
1787
1817
1837
1848
1865
1867
1863
1852
1849
1835
1817
1789
1771
1753
1735
1708
1698
1690
1674
1671
1679
1691
1677
1685
1695
1711
1725
1735
1748
1757
1757
1764
1772
1773
1771
1769
1769
1789
1827
1881
1966
2075
2187
2310
2424
2521
2600
2639
2651
2643
2599
2521
2441
2343
2232
2125
2031
1939
1855
1772
1720
1675
1644
1621
1623
1631
1647
1675
1719
1757
1802
1835
1877
1911
1939
1949
1961
1961
1947
1933
1917
1901
1879
1845
1824
1805
1783
1763
1755
1741
1727
1721
1725
1727
1735
1738
1751
1768
1783
1789
1809
1819
1827
1836
1845
1851
1851
1847
1849
1865
1893
1939
2011
2103
2201
2313
2425
2523
2600
2647
2667
2671
2639
2581
2508
2425
2325
2223
2139
2045
1961
1880
1816
1768
1727
1692
1683
1671
1671
1683
1705
1725
1753
1775
1807
1836
1864
1877
1897
1903
1903
1899
1894
1880
1864
1838
1817
1803
1784
1759
1747
1733
1710
1701
1711
1696
1700
1694
1703
1715
1722
1727
1741
1755
1759
1766
1776
1783
1784
1781
1781
1786
1788
1791
1816
1849
1902
1983
2093
2203
2326
2427
2527
2607
2661
2676
2676
2643
2579
2493
2415
2317
2213
2104
2009
1927
1845
1765
1717
1677
1642
1628
1635
1643
1663
1690
1723
1766
1802
1831
1871
1893
1911
1927
1938
1935
1931
1907
1892
1879
1853
1829
1817
1797
1775
1763
1755
1747
1741
1735
1727
1737
1736
1727
1737
1739
1733
1741
1754
1755
1759
1755
1757
1767
1767
1763
1763
1757
1754
1752
1759
1759
1759
1763
1775
1804
1853
1926
2025
2139
2262
2393
2511
2615
2695
2736
2759
2745
2703
2630
2543
2451
2335
2231
2139
2043
1959
1875
1813
1757
1711
1675
1660
1656
1653
1662
1689
1711
1741
1769
1801
1833
1853
1869
1890
1897
1897
1893
1891
1881
1864
1833
1817
1801
1784
1757
1754
1747
1727
1721
1723
1720
1721
1721
1725
1743
1751
1752
1759
1765
1764
1767
1773
1776
1775
1768
1769
1771
1767
1757
1757
1747
1727
1717
1711
1703
1694
1693
1716
1764
1837
1934
2065
2201
2333
2476
2591
2682
2749
2776
2769
2735
2671
2584
2491
2383
2261
2146
2043
1944
1848
1757
1687
1641
1606
1575
1573
1577
1591
1622
1668
1711
1759
1806
1851
1896
1930
1939
1967
1977
1975
1966
1963
1947
1925
1893
1870
1849
1827
1799
1785
1772
1753
1741
1741
1734
1727
1721
1719
1723
1725
1723
1735
1739
1742
1747
1759
1767
1771
1768
1774
1783
1788
1785
1800
1804
1803
1811
1839
1881
1947
2031
2147
2275
2405
2527
2646
2733
2795
2825
2826
2790
2727
2635
2539
2437
2329
2213
2119
2015
1927
1847
1791
1748
1715
1692
1691
1703
1733
1757
1805
1848
1893
1935
1983
2023
2053
2065
2077
2087
2083
2058
2041
2017
1979
1946
1917
1887
1861
1824
1803
1791
1781
1767
1767
1767
1767
1774
1787
1797
1807
1815
1821
1837
1845
1844
1853
1861
1855
1868
1868
1871
1874
1875
1895
1935
1991
2071
2169
2277
2383
2489
2590
2663
2713
2729
2725
2684
2621
2534
2444
2344
2233
2133
2037
1947
1866
1782
1727
1691
1659
1642
1645
1657
1676
1707
1752
1789
1833
1869
1904
1943
1963
1975
1991
1993
1977
1961
1945
1919
1895
1851
1831
1812
1785
1757
1749
1738
1723
1718
1721
1721
1723
1723
1735
1753
1764
1769
1786
1799
1805
1815
1829
1833
1839
1838
1840
1853
1863
1877
1916
1979
2059
2155
2275
2387
2489
2585
2654
2709
2719
2699
2664
2601
2509
2408
2317
2205
2103
1995
1903
1823
1755
1687
1651
1619
1597
1596
1613
1635
1670
1701
1749
1799
1837
1875
1913
1939
1951
1961
1963
1959
1947
1916
1885
1870
1839
1803
1783
1759
1735
1711
1703
1689
1691
1663
1673
1679
1688
1694
1720
1725
1738
1752
1772
1785
1792
1799
1805
1813
1813
1805
1813
1813
1811
1827
1865
1917
2001
2091
2203
2325
2431
2531
2615
2667
2684
2671
2647
2589
2507
2403
2297
2197
2092
1983
1899
1815
1741
1683
1645
1619
1600
1594
1609
1637
1671
1701
1753
1799
1833
1867
1907
1933
1947
1951
1956
1955
1944
1918
1903
1881
1848
1823
1806
1783
1761
1735
1716
1709
1701
1695
1700
1699
1695
1699
1711
1714
1727
1735
1743
1754
1759
1763
1771
1773
1773
1779
1788
1789
1800
1805
1831
1876
1946
2027
2135
2245
2351
2456
2551
2616
2653
2655
2637
2595
2521
2425
2336
2235
2125
2020
1933
1844
1765
1691
1638
1599
1575
1559
1567
1581
1605
1639
1687
1726
1773
1813
1849
1887
1911
1918
1932
1933
1917
1903
1891
1869
1843
1813
1783
1765
1741
1711
1703
1689
1675
1671
1675
1675
1677
1675
1683
1695
1707
1707
1725
1734
1725
1741
1753
1753
1755
1749
1748
1749
1755
1758
1783
1821
1883
1965
2083
2200
2317
2427
2525
2607
2659
2675
2668
2635
2569
2485
2397
2294
2190
2076
1974
1885
1799
1719
1661
1619
1583
1567
1574
1587
1619
1655
1701
1755
1805
1847
1899
1939
1961
1977
1995
2003
2004
1983
1968
1956
1932
1899
1882
1867
1824
1805
1785
1767
1753
1737
1727
1733
1735
1727
1741
1749
1754
1766
1781
1788
1802
1803
1813
1823
1829
1828
1835
1851
1869
1908
1973
2056
2139
2235
2340
2445
2525
2590
2637
2651
2637
2599
2547
2471
2385
2282
2189
2099
2003
1908
1839
1771
1711
1669
1643
1639
1639
1646
1675
1711
1753
1789
1839
1880
1913
1944
1967
1981
1989
1979
1971
1961
1947
1915
1902
1877
1848
1823
1810
1788
1773
1753
1747
1749
1747
1743
1756
1758
1763
1772
1783
1791
1804
1804
1812
1821
1824
1823
1835
1845
1853
1883
1934
1997
2080
2171
2277
2381
2475
2553
2618
2655
2661
2645
2615
2554
2479
2391
2296
2208
2117
2014
1941
1864
1797
1739
1705
1685
1671
1675
1679
1707
1743
1772
1817
1863
1891
1919
1951
1967
1980
1975
1975
1963
1947
1919
1907
1883
1854
1829
1816
1797
1779
1756
1749
1747
1747
1738
1749
1755
1759
1768
1785
1792
1804
1811
1819
1832
1836
1837
1845
1845
1847
1849
1864
1876
1907
1956
2025
2121
2221
2328
2439
2535
2608
2666
2701
2707
2681
2629
2568
2487
2396
2295
2207
2120
2025
1945
1883
1823
1779
1737
1719
1715
1721
1737
1767
1799
1827
1865
1903
1941
1967
1984
2003
2012
2015
2003
1993
1975
1957
1927
1903
1881
1851
1823
1805
1799
1785
1772
1772
1770
1769
1769
1783
1787
1799
1801
1811
1823
1832
1835
1849
1855
1855
1852
1864
1864
1861
1848
1849
1863
1881
1913
1979
2067
2157
2263
2373
2469
2551
2605
2638
2648
2629
2573
2511
2430
2332
2231
2146
2055
1959
1871
1801
1741
1687
1642
1625
1619
1617
1631
1661
1695
1734
1769
1805
1845
1873
1893
1915
1929
1929
1925
1925
1908
1891
1864
1839
1819
1797
1766
1752
1735
1710
1695
1691
1687
1683
1673
1677
1687
1695
1702
1720
1735
1739
1749
1767
1772
1774
1773
1773
1774
1773
1764
1764
1757
1754
1764
1800
1845
1913
1997
2107
2224
2341
2439
2525
2585
2619
2616
2599
2544
2477
2383
2285
2191
2087
1976
1890
1802
1717
1646
1603
1565
1543
1526
1543
1563
1592
1627
1674
1719
1757
1791
1839
1871
1887
1895
1899
1896
1883
1855
1839
1816
1781
1751
1735
1715
1700
1679
1673
1673
1674
1671
1684
1691
1705
1707
1725
1741
1755
1757
1766
1776
1785
1783
1788
1787
1783
1774
1779
1775
1779
1776
1811
1838
1903
1983
2093
2219
2329
2442
2542
2627
2676
2693
2684
2655
2596
2509
2426
2328
2221
2123
2031
1947
1869
1791
1741
1707
1682
1660
1675
1689
1709
1737
1783
1829
1875
1903
1943
1971
1993
1997
2004
1999
1983
1967
1957
1932
1907
1875
1851
1837
1823
1803
1800
1797
1787
1791
1799
1801
1807
1811
1817
1833
1837
1836
1847
1839
1839
1838
1847
1845
1849
1845
1853
1877
1910
1954
2023
2109
2203
2303
2407
2491
2566
2605
2629
2629
2599
2537
2475
2396
2303
2207
2123
2031
1949
1870
1807
1757
1721
1692
1685
1683
1688
1708
1742
1775
1818
1849
1887
1927
1955
1967
1983
1994
1989
1977
1967
1950
1931
1901
1880
1863
1837
1815
1805
1789
1772
1765
1767
1767
1767
1765
1769
1783
1789
1797
1813
1819
1824
1829
1843
1846
1851
1847
1851
1861
1867
1871
1895
1931
1977
2046
2141
2247
2345
2445
2536
2617
2663
2679
2681
2654
2597
2521
2451
2359
2265
2163
2075
1993
1917
1842
1791
1755
1722
1704
1707
1717
1736
1759
1787
1833
1869
1895
1931
1957
1967
1975
1983
1979
1974
1950
1933
1914
1891
1866
1847
1821
1799
1775
1767
1753
1745
1728
1727
1735
1740
1741
1757
1768
1771
1780
1799
1807
1815
1816
1821
1831
1837
1833
1835
1839
1835
1835
1844
1867
1897
1947
2021
2115
2215
2313
2411
2495
2567
2604
2629
2620
2587
2520
2447
2362
2267
2165
2079
1992
1901
1815
1769
1720
1683
1647
1639
1645
1656
1673
1707
1747
1780
1819
1867
1900
1929
1945
1959
1967
1965
1960
1944
1927
1897
1869
1848
1823
1800
1770
1751
1737
1719
1701
1695
1691
1687
1684
1690
1693
1701
1699
1705
1717
1725
1725
1742
1749
1750
1748
1755
1753
1753
1749
1748
1753
1755
1758
1785
1823
1879
1959
2058
2159
2267
2358
2446
2511
2549
2553
2547
2507
2443
2361
2280
2187
2091
1991
1901
1822
1751
1681
1635
1597
1567
1553
1549
1571
1593
1620
1657
1704
1742
1772
1810
1834
1851
1852
1865
1855
1845
1829
1811
1799
1774
1750
1733
1711
1695
1677
1670
1659
1654
1642
1643
1652
1655
1655
1671
1679
1687
1695
1711
1723
1735
1737
1747
1755
1759
1754
1759
1756
1752
1750
1756
1768
1789
1823
1883
1965
2060
2157
2263
2357
2440
2494
2535
2540
2524
2473
2411
2339
2251
2151
2067
1973
1882
1801
1739
1683
1637
1595
1576
1577
1583
1597
1631
1672
1709
1757
1806
1849
1898
1913
1938
1957
1961
1955
1949
1933
1909
1889
1875
1848
1824
1801
1781
1771
1757
1743
1751
1749
1745
1753
1767
1775
1787
1797
1803
1816
1821
1820
1831
1833
1833
1831
1837
1839
1835
1835
1848
1881
1931
1997
2091
2188
2287
2388
2479
2555
2611
2635
2637
2622
2583
2511
2443
2355
2263
2165
2087
2003
1927
1850
1792
1757
1726
1706
1711
1717
1735
1761
1801
1836
1877
1903
1940
1975
1997
2006
2014
2013
2003
1990
1977
1951
1930
1897
1875
1853
1833
1804
1799
1783
1771
1768
1773
1773
1783
1781
1797
1811
1821
1827
1837
1848
1853
1855
1873
1877
1879
1876
1880
1890
1900
1920
1972
2036
2117
2205
2323
2429
2527
2614
2679
2726
2741
2727
2699
2641
2567
2471
2390
2295
2199
2103
2021
1947
1883
1822
1787
1758
1741
1743
1758
1784
1817
1851
1893
1941
1978
2012
2042
2065
2070
2072
2073
2060
2039
2010
1983
1963
1939
1904
1884
1865
1839
1819
1813
1799
1790
1780
1780
1784
1785
1787
1803
1807
1817
1819
1833
1839
1848
1848
1853
1861
1866
1866
1871
1875
1875
1887
1927
1972
2041
2133
2233
2351
2469
2573
2664
2730
2772
2779
2769
2727
2661
2572
2475
2383
2280
2172
2087
1997
1913
1845
1801
1761
1739
1722
1723
1747
1771
1802
1843
1885
1916
1957
1995
2019
2035
2038
2037
2031
2020
1997
1981
1959
1929
1899
1880
1853
1831
1807
1787
1781
1770
1762
1758
1767
1764
1769
1779
1788
1803
1807
1817
1833
1842
1836
1846
1847
1837
1835
1839
1838
1832
1828
1835
1863
1897
1951
2035
2131
2232
2335
2441
2523
2591
2621
2631
2616
2577
2503
2427
2333
2231
2132
2039
1948
1867
1785
1723
1679
1643
1619
1612
1619
1631
1657
1703
1743
1784
1820
1861
1899
1927
1940
1956
1959
1949
1941
1929
1911
1885
1853
1835
1815
1791
1769
1758
1743
1720
1715
1711
1706
1707
1703
1707
1718
1727
1733
1750
1759
1765
1765
1781
1785
1785
1779
1779
1779
1781
1775
1783
1784
1785
1811
1855
1915
2003
2099
2205
2324
2427
2510
2584
2621
2631
2613
2581
2511
2424
2325
2221
2123
2019
1913
1833
1753
1679
1624
1592
1573
1565
1571
1591
1629
1671
1706
1759
1805
1845
1883
1916
1941
1947
1945
1941
1931
1910
1883
1863
1833
1800
1773
1759
1738
1719
1703
1695
1693
1694
1690
1701
1705
1707
1717
1735
1748
1763
1769
1775
1789
1803
1801
1814
1817
1812
1813
1818
1820
1836
1861
1909
1983
2078
2184
2295
2404
2495
2581
2645
2675
2679
2648
2600
2534
2451
2349
2255
2155
2057
1958
1883
1807
1751
1695
1670
1656
1656
1660
1692
1723
1763
1806
1853
1903
1943
1963
1989
2009
2013
2007
2002
1980
1957
1932
1909
1885
1861
1830
1812
1799
1783
1765
1763
1755
1750
1751
1766
1771
1784
1789
1804
1821
1835
1835
1848
1851
1849
1849
1852
1861
1864
1869
1879
1910
1960
2027
2119
2215
2316
2420
2515
2589
2639
2661
2661
2641
2587
2511
2432
2341
2237
2139
2055
1963
1883
1803
1742
1703
1671
1648
1651
1661
1679
1709
1751
1789
1835
1869
1903
1941
1964
1975
1983
1988
1973
1951
1940
1913
1891
1863
1835
1819
1801
1779
1775
1766
1755
1748
1754
1756
1763
1764
1771
1789
1798
1801
1820
1831
1835
1843
1855
1855
1863
1851
1853
1861
1853
1848
1853
1868
1882
1917
1989
2071
2167
2265
2367
2475
2564
2623
2665
2681
2662
2619
2569
2489
2397
2293
2201
2109
2015
1929
1853
1791
1740
1699
1679
1663
1670
1675
1695
1727
1769
1805
1849
1885
1911
1938
1961
1973
1975
1963
1959
1949
1933
1908
1891
1869
1839
1816
1805
1785
1767
1747
1741
1737
1737
1735
1747
1755
1755
1765
1780
1791
1803
1811
1815
1822
1836
1829
1831
1831
1821
1817
1819
1817
1814
1809
1823
1851
1899
1960
2057
2155
2254
2351
2452
2524
2581
2599
2592
2571
2509
2429
2350
2259
2152
2055
1967
1884
1803
1727
1675
1635
1607
1584
1588
1596
1613
1641
1686
1723
1769
1803
1838
1875
1899
1907
1915
1918
1902
1886
1875
1861
1832
1805
1779
1763
1743
1717
1705
1693
1677
1672
1673
1675
1675
1673
1687
1703
1715
1715
1734
1739
1741
1749
1755
1759
1764
1757
1764
1767
1767
1757
1763
1759
1755
1765
1797
1837
1899
1980
2077
2184
2283
2365
2449
2495
2521
2521
2501
2457
2391
2299
2215
2126
2027
1929
1843
1765
1693
1629
1592
1563
1547
1541
1562
1581
1621
1657
1707
1758
1799
1837
1881
1908
1929
1931
1937
1932
1917
1887
1877
1848
1817
1785
1763
1739
1711
1687
1675
1671
1659
1647
1657
1655
1659
1669
1684
1691
1709
1709
1715
1737
1747
1751
1765
1769
1767
1768
1773
1775
1781
1781
1792
1827
1874
1931
2019
2123
2227
2335
2441
2523
2589
2620
2629
2611
2569
2491
2415
2325
2215
2109
2015
1917
1835
1749
1691
1645
1612
1589
1593
1609
1625
1660
1715
1765
1815
1855
1901
1944
1975
1991
2009
2011
1998
1983
1973
1947
1916
1885
1853
1834
1816
1787
1775
1764
1753
1748
1753
1757
1765
1765
1775
1798
1805
1814
1829
1835
1833
1835
1844
1839
1843
1832
1830
1839
1853
1883
1941
2012
2101
2201
2319
2425
2523
2597
2651
2683
2682
2649
2601
2527
2431
2333
2235
2132
2027
1929
1839
1775
1704
1646
1621
1598
1589
1599
1629
1661
1707
1743
1789
1836
1879
1903
1938
1957
1960
1959
1959
1947
1931
1907
1890
1875
1851
1829
1820
1807
1797
1785
1787
1785
1787
1785
1788
1800
1807
1812
1821
1832
1833
1839
1851
1853
1853
1849
1849
1861
1861
1855
1881
1913
1961
2037
2137
2248
2359
2471
2580
2660
2719
2748
2759
2731
2675
2599
2515
2409
2299
2184
2084
1989
1897
1816
1756
1703
1673
1647
1656
1677
1701
1733
1775
1827
1874
1913
1957
1991
2011
2024
2039
2035
2023
1996
1967
1943
1909
1868
1837
1805
1773
1749
1727
1715
1703
1688
1687
1691
1695
1695
1715
1724
1737
1747
1767
1775
1783
1783
1791
1806
1811
1813
1819
1823
1833
1850
1899
1963
2043
2150
2269
2397
2519
2621
2707
2761
2781
2772
2733
2665
2580
2468
2359
2248
2135
2017
1927
1832
1752
1691
1651
1625
1613
1610
1628
1671
1707
1752
1813
1863
1903
1951
1995
2019
2035
2031
2029
2022
2003
1966
1947
1911
1877
1843
1818
1791
1772
1749
1735
1725
1717
1707
1715
1719
1722
1737
1752
1766
1779
1782
1791
1805
1815
1811
1821
1821
1823
1836
1869
1917
1993
2079
2185
2299
2409
2505
2596
2651
2675
2675
2651
2601
2524
2432
2339
2235
2136
2025
1939
1849
1767
1703
1655
1619
1599
1591
1597
1631
1660
1693
1743
1787
1829
1867
1912
1935
1959
1963
1964
1967
1952
1929
1908
1883
1849
1820
1805
1781
1765
1743
1735
1737
1735
1725
1737
1743
1747
1752
1761
1767
1771
1769
1779
1784
1789
1787
1803
1817
1836
1880
1948
2027
2129
2223
2327
2425
2505
2565
2603
2612
2588
2542
2487
2409
2319
2213
2119
2025
1939
1847
1779
1721
1672
1630
1615
1609
1613
1621
1646
1686
1725
1763
1813
1847
1876
1903
1931
1944
1945
1933
1927
1911
1883
1848
1829
1801
1769
1747
1726
1721
1703
1689
1687
1689
1694
1692
1706
1715
1717
1725
1747
1750
1757
1762
1769
1783
1797
1800
1835
1876
1932
2007
2103
2197
2297
2392
2478
2549
2597
2611
2604
2575
2514
2439
2358
2265
2169
2071
1977
1897
1822
1752
1705
1661
1635
1618
1623
1638
1657
1685
1721
1763
1804
1835
1877
1903
1917
1933
1943
1939
1929
1907
1887
1869
1840
1811
1788
1767
1737
1717
1705
1695
1689
1675
1676
1681
1689
1687
1702
1711
1717
1723
1737
1747
1751
