1753
1805
1843
1869
1875
1869
1861
1835
1803
1761
1707
1652
1587
1531
1483
1433
1403
1372
1339
1321
1308
1292
1273
1263
1261
1253
1254
1261
1263
1276
1293
1307
1325
1339
1351
1373
1365
1371
1375
1367
1371
1350
1339
1331
1324
1325
1350
1399
1496
1639
1829
2059
2317
2599
2893
3190
3503
3765
3948
4041
4085
3911
3719
3498
3247
3017
2787
2571
2364
2173
2009
1864
1742
1649
1575
1531
1519
1512
1526
1557
1592
1623
1661
1683
1704
1703
1706
1672
1627
1571
1487
1419
1355
1279
1235
1191
1177
1180
1192
1223
1256
1301
1351
1399
1439
1487
1517
1561
1591
1619
1639
1657
1671
1682
1683
1684
1683
1672
1673
1679
1671
1672
1672
1689
1724
1799
1903
2095
2342
2652
3040
3567
4095
4095
4095
4095
4095
4095
4095
4095
4095
4095
4095
4095
4095
4095
4095
3961
3381
2929
2591
2317
2112
1977
1907
1898
1945
2031
2142
2267
2383
2480
2555
2595
2581
2525
2421
2284
2119
1925
1725
1531
1343
1189
1051
943
873
824
807
813
841
883
936
995
1063
1127
1188
1252
1311
1379
1439
1483
1531
1573
1605
1619
1623
1615
1597
1571
1549
1549
1587
1677
1829
2043
2315
2629
2975
3391
3859
4095
4095
4095
4095
4095
4095
4095
4095
4095
4027
3631
3244
2900
2583
2264
1963
1688
1450
1260
1135
1074
1061
1086
1149
1235
1332
1436
1531
1624
1704
1762
1807
1833
1845
1846
1835
1810
1802
1789
1749
1630
1440
1226
1033
859
701
596
521
471
455
473
489
535
569
617
665
715
755
795
841
887
935
974
999
1018
1045
1064
1101
1175
1308
1503
1773
2106
2483
2905
3419
4030
4095
4095
4095
4095
4095
4095
4095
4095
4095
4095
3561
3111
2750
2456
2200
1983
1817
1691
1619
1586
1591
1625
1672
1721
1769
1811
1822
1819
1789
1769
1725
1671
1593
1501
1417
1327
1247
1176
1109
1065
1033
1001
984
971
955
950
936
923
908
893
863
827
793
757
731
715
698
711
727
755
781
812
844
872
909
941
975
1015
1071
1145
1261
1421
1639
1910
2219
2575
2956
3386
3863
4095
4095
4095
4095
4095
4095
3902
3500
3131
2792
2487
2219
1960
1736
1549
1391
1270
1195
1159
1151
1175
1237
1304
1382
1461
1545
1612
1658
1691
1717
1724
1719
1699
1673
1637
1593
1555
1502
1450
1397
1355
1323
1299
1277
1261
1259
1261
1267
1277
1301
1315
1325
1351
1365
1381
1397
1417
1427
1437
1445
1452
1467
1493
1526
1599
1721
1879
2101
2387
2709
3098
3567
4095
4095
4095
4095
4095
4095
4095
4095
4095
4095
4095
3877
3351
2911
2553
2251
1983
1766
1607
1500
1451
1439
1471
1541
1615
1705
1790
1867
1935
1975
1983
1979
1957
1916
1867
1800
1721
1640
1561
1478
1403
1343
1291
1250
1212
1195
1195
1191
1195
1208
1231
1255
1277
1302
1319
1337
1354
1363
1363
1359
1351
1337
1320
1321
1335
1383
1471
1607
1779
2005
2267
2541
2825
3101
3343
3535
3643
3635
3517
3353
3119
2879
2645
2397
2160
1932
1715
1515
1351
1226
1144
1086
1068
1078
1125
1195
1286
1380
1463
1559
1636
1695
1737
1771
1789
1787
1773
1739
1694
1647
1593
1543
1481
1431
1381
1333
1295
1267
1239
1233
1227
1215
1207
1209
1212
1237
1239
1253
1261
1289
1305
1311
1327
1341
1359
1367
1367
1367
1363
1361
1375
1421
1513
1655
1851
2103
2391
2693
3016
3359
3685
3963
4095
4095
4029
3819
3545
3239
2965
2697
2454
2219
2005
1811
1645
1509
1407
1339
1311
1311
1340
1398
1461
1546
1621
1699
1764
1821
1853
1875
1877
1864
1838
1801
1755
1708
1656
1605
1553
1495
1449
1401
1363
1317
1294
1275
1263
1267
1269
1285
1294
1310
1335
1353
1371
1383
1387
1391
1395
1389
1387
1381
1383
1373
1381
1401
1455
1556
1695
1901
2153
2442
2751
3093
3465
3816
4093
4095
4095
4095
4031
3759
3481
3181
2917
2669
2443
2223
2039
1865
1719
1609
1519
1468
1436
1435
1459
1499
1551
1613
1671
1724
1773
1805
1829
1845
1843
1827
1800
1765
1724
1683
1638
1583
1531
1485
1445
1404
1381
1358
1332
1324
1323
1323
1334
1335
1343
1363
1370
1380
1385
1395
1400
1403
1407
1415
1407
1407
1416
1415
1427
1443
1491
1581
1719
1911
2149
2419
2715
3007
3319
3611
3845
3967
3976
3871
3679
3445
3177
2922
2688
2470
2251
2057
1884
1727
1608
1505
1439
1395
1381
1389
1403
1432
1468
1527
1579
1631
1684
1718
1749
1758
1755
1751
1733
1703
1669
1628
1587
1546
1499
1463
1431
1403
1373
1351
1331
1315
1309
1315
1316
1328
1325
1337
1339
1355
1351
1352
1363
1351
1357
1357
1361
1363
1365
1369
1377
1390
1429
1496
1593
1749
1931
2149
2385
2615
2839
3033
3195
3309
3343
3305
3207
3062
2895
2717
2531
2349
2166
1997
1839
1707
1598
1510
1449
1406
1389
1397
1420
1453
1493
1541
1590
1628
1663
1689
1708
1721
1724
1709
1705
1685
1654
1620
1583
1554
1516
1489
1463
1440
1423
1403
1391
1398
1397
1395
1395
1403
1417
1405
1415
1417
1417
1416
1423
1423
1431
1429
1432
1433
1443
1455
1487
1553
1637
1753
1897
2065
2237
2416
2598
2739
2853
2925
2952
2927
2867
2763
2646
2507
2375
2237
2102
1976
1864
1755
1669
1595
1547
1511
1494
1493
1500
1526
1560
1592
1628
1661
1695
1727
1751
1755
1751
1737
1718
1704
1675
1641
1614
1577
1554
1519
1492
1467
1450
1435
1427
1421
1422
1435
1429
1443
1448
1454
1448
1449
1453
1459
1465
1469
1469
1477
1469
1480
1496
1547
1607
1700
1807
1934
2069
2203
2332
2449
2535
2597
2617
2605
2571
2505
2419
2323
2219
2117
2012
1913
1821
1740
1674
1623
1591
1574
1576
1587
1580
1607
1623
1653
1675
1707
1720
1728
1739
1746
1742
1733
1715
1707
1689
1663
1641
1599
1579
1554
1520
1499
1486
1483
1479
1487
1497
1507
1513
1519
1530
1549
1557
1563
1562
1561
1565
1563
1561
1563
1577
1595
1627
1686
1752
1835
1929
2023
2118
2203
2267
2316
2335
2335
2319
2281
2229
2167
2107
2035
1965
1895
1833
1772
1715
1659
1619
1592
1580
1578
1582
1591
1611
1623
1643
1663
1688
1703
1705
1719
1719
1715
1710
1700
1689
1676
1655
1640
1625
1609
1595
1589
1578
1565
1559
1553
1543
1543
1548
1556
1557
1559
1565
1567
1577
1574
1575
1576
1573
1577
1579
1587
1586
1605
1605
1653
1703
1759
1833
1900
1967
2033
2089
2120
2139
2147
2129
2106
2069
2023
1975
1919
1867
1814
1765
1727
1689
1657
1643
1621
1611
1609
1605
1607
1599
1613
1630
1650
1675
1691
1703
1711
1709
1717
1709
1703
1693
1685
1663
1655
1652
1640
1625
1610
1604
1599
1597
1605
1597
1595
1597
1589
1595
1591
1587
1592
1597
1594
1606
1607
1598
1599
1599
1596
1587
1577
1571
1567
1573
1573
1582
1619
1642
1699
1754
1819
1883
1949
2003
2045
2078
2095
2093
2088
2067
2035
2010
1975
1938
1898
1855
1815
1774
1751
1717
1692
1669
1655
1641
1641
1651
1663
1683
1699
1711
1720
1737
1739
1742
1743
1745
1747
1727
1711
1701
1691
1676
1663
1656
1647
1639
1637
1627
1624
1617
1611
1611
1611
1611
1613
1618
1623
1627
1631
1635
1636
1637
1631
1623
1614
1605
1604
1596
1593
1592
1597
1613
1625
1640
1671
1709
1759
1813
1871
1933
1992
2029
2059
2079
2080
2075
2044
2018
1981
1949
1913
1875
1838
1798
1774
1754
1727
1707
1707
1699
1691
1693
1695
1692
1695
1702
1715
1720
1719
1723
1735
1738
1742
1740
1737
1734
1721
1711
1696
1687
1672
1653
1656
1647
1647
1653
1656
1659
1656
1669
1675
1671
1669
1661
1661
1659
1657
1653
1653
1647
1651
1641
1639
1643
1645
1647
1661
1677
1703
1727
1763
1809
1853
1897
1939
1971
1995
2015
2019
2015
2008
1983
1967
1943
1907
1877
1838
1807
1775
1763
1739
1725
1717
1711
1708
1703
1703
1711
1717
1735
1746
1751
1763
1767
1771
1768
1759
1765
1754
1747
1741
1725
1719
1703
1692
1687
1681
1677
1678
1677
1683
1677
1685
1684
1688
1687
1686
1685
1687
1689
1688
1689
1689
1683
1675
1675
1683
1673
1681
1693
1711
1726
1753
1787
1827
1877
1919
1961
1995
2027
2042
2055
2055
2036
2016
2003
1962
1939
1903
1867
1832
1809
1785
1765
1749
1736
1726
1719
1722
1718
1737
1751
1755
1768
1775
1781
1797
1799
1801
1791
1783
1779
1771
1758
1758
1741
1738
1736
1719
1710
1714
1711
1719
1719
1717
1711
1715
1704
1714
1704
1705
1700
1701
1699
1693
1701
1704
1709
1720
1725
1749
1768
1788
1818
1853
1894
1947
1998
2045
2089
2130
2151
2164
2163
2151
2137
2107
2073
2031
1997
1950
1917
1883
1848
1822
1805
1788
1775
1767
1773
1775
1780
1799
1802
1818
1829
1834
1839
1843
1849
1848
1848
1863
1867
1854
1849
1839
1831
1817
1800
1784
1770
1763
1754
1743
1737
1733
1727
1726
1725
1727
1726
1735
1733
1727
1736
1741
1739
1743
1745
1754
1771
1799
1831
1879
1941
2004
2071
2125
2184
2233
2269
2296
2301
2299
2276
2253
2216
2163
2125
2073
2027
1981
1945
1909
1883
1863
1839
1833
1827
1821
1830
1835
1847
1864
1867
1881
1893
1899
1909
1909
1912
1909
1889
1875
1853
1835
1828
1815
1801
1797
1785
1779
1773
1771
1769
1765
1766
1773
1757
1756
1755
1759
1768
1766
1765
1768
1767
1763
1767
1767
1772
1775
1785
1812
1832
1877
1937
2003
2092
2175
2269
2351
2427
2482
2517
2537
2533
2511
2469
2412
2343
2280
2216
2149
2083
2023
1973
1935
1909
1876
1875
1868
1871
1877
1895
1911
1944
1959
1964
1977
1978
1975
1964
1951
1938
1925
1901
1882
1869
1851
1839
1832
1811
1791
1781
1773
1757
1756
1757
1755
1763
1764
1757
1759
1759
1755
1758
1751
1751
1747
1741
1739
1739
1737
1743
1747
1771
1811
1870
1946
2036
2147
2278
2413
2543
2665
2764
2839
2875
2887
2846
2788
2712
2613
2508
2403
2293
2190
2091
2001
1927
1867
1821
1802
1791
1791
1806
1833
1869
1915
1955
1989
2019
2039
2066
2078
2077
2075
2066
2057
2037
2023
1993
1964
1937
1907
1883
1853
1822
1803
1784
1773
1767
1777
1764
1772
1769
1773
1781
1785
1802
1805
1813
1804
1813
1819
1816
1823
1833
1845
1863
1893
1941
1998
2094
2205
2341
2485
2642
2781
2905
3005
3064
3091
3081
3027
2943
2845
2731
2616
2489
2383
2263
2165
2075
2007
1957
1917
1899
1908
1919
1949
1989
2025
2067
2101
2132
2160
2185
2199
2193
2181
2160
2139
2103
2065
2015
1979
1947
1908
1877
1847
1829
1823
1805
1799
1787
1779
1775
1773
1775
1775
1775
1769
1769
1771
1774
1769
1757
1757
1752
1753
1757
1777
1819
1887
1997
2145
2322
2532
2773
3029
3303
3572
3816
3977
4065
4046
3949
3769
3565
3342
3117
2907
2712
2535
2381
2239
2127
2037
1975
1945
1944
1961
1997
2053
2106
2168
2231
2281
2323
2351
2364
2358
2345
2328
2297
2261
2215
2165
2119
2077
2030
1993
1959
1927
1899
1886
1887
1879
1891
1903
1919
1939
1960
1971
1976
1983
1991
1992
1989
1979
1977
1967
1964
1955
1971
2007
2085
2215
2397
2651
2951
3338
3827
4095
4095
4095
4095
4095
4095
4095
4095
4095
4095
4095
4095
4095
3869
3411
3045
2764
2509
2329
2175
2069
2007
1979
1992
2027
2075
2131
2193
2234
2279
2311
2328
2329
2311
2276
2219
2157
2091
2019
1948
1885
1819
1781
1749
1724
1707
1694
1708
1732
1748
1765
1791
1807
1816
1831
1821
1815
1800
1777
1757
1743
1721
1709
1703
1704
1727
1788
1897
2072
2299
2589
2935
3376
3924
4095
4095
4095
4095
4095
4095
4095
4095
4095
4095
4095
4095
4095
3943
3471
3068
2749
2491
2261
2084
1944
1838
1782
1759
1767
1796
1839
1887
1939
1989
2028
2068
2087
2091
2086
2063
2023
1979
1927
1865
1789
1721
1651
1592
1543
1497
1463
1443
1432
1431
1439
1460
1471
1493
1510
1531
1555
1561
1557
1553
1541
1530
1519
1494
1493
1491
1501
1549
1620
1753
1950
2205
2521
2877
3321
3865
4095
4095
4095
4095
4095
4095
4095
4095
4095
4095
4095
3868
3399
3007
2698
2427
2191
1995
1830
1701
1615
1561
1553
1563
1615
1691
1775
1877
1963
2041
2106
2154
2171
2175
2151
2095
2013
1930
1829
1719
1609
1511
1435
1372
1328
1310
1317
1335
1371
1413
1465
1507
1554
1582
1606
1614
1611
1589
1562
1523
1479
1429
1381
1337
1294
1259
1239
1216
1206
1216
1247
1309
1417
1572
1773
2025
2315
2619
2921
3237
3535
3774
3901
3927
3836
3660
3431
3179
2941
2716
2502
2283
2085
1901
1741
1607
1497
1423
1371
1343
1338
1367
1401
1453
1515
1579
1641
1688
1727
1759
1769
1754
1743
1699
1647
1591
1529
1471
1423
1378
1333
1301
1279
1267
1263
1271
1278
1295
1311
1322
1337
1337
1335
1333
1333
1326
1321
1319
1335
1335
1336
1351
1370
1387
1428
1479
1553
1655
1801
1961
2172
2409
2662
2925
3196
3440
3659
3796
3837
3798
3678
3503
3283
3058
2843
2633
2423
2229
2056
1895
1754
1636
1547
1485
1456
1455
1467
1507
1559
1597
1644
1677
1702
1717
1724
1711
1695
1662
1615
1573
1517
1479
1443
1401
1381
1352
1334
1317
1304
1302
1287
1285
1273
1255
1251
1244
1244
1241
1241
1241
1245
1254
1261
1269
1287
1306
1327
1363
1431
1519
1659
1833
2043
2291
2558
2830
3099
3351
3557
3698
3748
3708
3570
3383
3162
2935
2727
2511
2317
2135
1957
1806
1678
1583
1508
1465
1447
1447
1467
1506
1551
1599
1653
1693
1723
1753
1772
1771
1765
1747
1711
1687
1643
1604
1562
1515
1477
1435
1405
1383
1359
1333
1323
1307
1299
1287
1286
1275
1287
1286
1287
1287
1289
1289
1291
1289
1288
1307
1328
1373
1449
1563
1715
1907
2147
2410
2707
3007
3324
3627
3857
3968
3974
3871
3701
3468
3223
2968
2741
2513
2300
2104
1941
1784
1657
1559
1495
1452
1437
1449
1481
1519
1573
1617
1659
1703
1737
1753
1763
1753
1743
1707
1671
1625
1581
1540
1493
1449
1407
1372
1354
1333
1317
1307
1315
1315
1307
1319
1319
1317
1315
1317
1307
1305
1299
1297
1293
1285
1290
1305
1334
1387
1478
1587
1768
1959
2189
2444
2713
2995
3278
3540
3751
3865
3893
3810
3659
3447
3224
2990
2786
2571
2379
2189
2020
1873
1739
1635
1553
1491
1465
1462
1477
1502
1559
1608
1661
1709
1755
1784
1801
1797
1775
1743
1705
1657
1609
1559
1509
1458
1408
1383
1359
1335
1323
1319
1311
1321
1326
1322
1325
1325
1327
1331
1325
1321
1316
1311
1309
1307
1314
1319
1327
1363
1419
1502
1630
1788
1983
2218
2476
2762
3053
3374
3672
3915
4077
4095
4037
3899
3677
3429
3176
2935
2713
2511
2302
2123
1951
1803
1679
1580
1510
1466
1451
1468
1501
1556
1598
1668
1715
1762
1787
1800
1802
1791
1767
1724
1686
1630
1577
1519
1471
1428
1385
1349
1324
1305
1297
1289
1290
1299
1301
1306
1315
1316
1319
1324
1321
1319
1315
1299
1299
1301
1304
1308
1327
1356
1401
1469
1577
1715
1897
2111
2360
2633
2923
3229
3547
3837
4026
4095
4095
3999
3793
3540
3277
3031
2795
2577
2377
2173
2007
1855
1737
1639
1564
1511
1499
1503
1531
1581
1627
1675
1721
1767
1803
1817
1823
1811
1783
1746
1699
1644
1593
1531
1483
1433
1389
1359
1333
1312
1299
1293
1290
1290
1295
1294
1302
1300
1295
1302
1301
1294
1285
1285
1277
1277
1287
1286
1291
1305
1330
1369
1433
1523
1647
1816
2019
2247
2495
2761
3035
3310
3581
3775
3892
3903
3823
3661
3448
3237
2997
2775
2573
2365
2193
2026
1883
1764
1657
1592
1557
1533
1558
1574
1609
1648
1701
1757
1785
1814
1833
1831
1820
1802
1773
1740
1702
1659
1615
1564
1519
1486
1444
1417
1387
1355
1331
1309
1301
1292
1279
1275
1286
1289
1303
1310
1319
1331
1340
1352
1357
1367
1368
1369
1379
1382
1401
1443
1510
1615
1765
1951
2183
2425
2686
2955
3237
3509
3723
3853
3896
3849
3707
3515
3288
3054
2837
2615
2420
2227
2067
1912
1787
1694
1627
1599
1581
1588
1614
1643
1691
1727
1767
1801
1821
1832
1832
1823
1807
1775
1747
1691
1653
1615
1577
1531
1501
1469
1439
1403
1379
1358
1327
1312
1304
1293
1291
1291
1301
1307
1323
1339
1355
1370
1384
1390
1397
1398
1399
1399
1407
1435
1479
1563
1699
1875
2091
2343
2621
2921
3241
3567
3863
4069
4095
4095
3995
3790
3534
3273
3027
2790
2581
2379
2203
2042
1913
1815
1741
1687
1655
1653
1655
1674
1696
1718
1737
1755
1773
1783
1787
1784
1779
1762
1741
1718
1690
1661
1627
1591
1561
1517
1487
1455
1422
1387
1357
1325
1317
1305
1293
1277
1293
1298
1312
1320
1337
1356
1373
1389
1399
1404
1421
1430
1452
1501
1582
1709
1880
2092
2336
2601
2889
3196
3527
3831
4055
4095
4095
4027
3831
3573
3307
3044
2805
2579
2363
2186
2018
1881
1775
1700
1651
1635
1640
1651
1686
1723
1767
1812
1843
1864
1880
1886
1884
1880
1863
1831
1799
1758
1719
1685
1647
1609
1569
1531
1499
1459
1435
1415
1389
1365
1344
1337
1336
1339
1351
1357
1366
1379
1383
1396
1413
1417
1443
1483
1551
1655
1790
1983
2207
2469
2747
3047
3383
3719
4023
4095
4095
4095
4095
4021
3764
3476
3189
2931
2696
2475
2275
2095
1932
1817
1715
1657
1621
1609
1620
1654
1685
1725
1773
1816
1843
1855
1869
1871
1841
1815
1783
1748
1701
1657
1618
1574
1529
1487
1464
1435
1415
1395
1371
1365
1359
1337
1327
1315
1305
1299
1300
1299
1304
1319
1333
1351
1367
1381
1395
1437
1487
1579
1705
1871
2078
2321
2597
2901
3229
3607
3979
4095
4095
4095
4095
4095
4095
4095
3769
3453
3173
2907
2667
2457
2263
2091
1945
1829
1742
1683
1651
1638
1652
1675
1696
1727
1765
1785
1802
1812
1814
1811
1784
1763
1723
1684
1642
1604
1557
1515
1480
1442
1405
1375
1343
1310
1279
1271
1263
1257
1262
1268
1274
1287
1290
1309
1321
1327
1327
1337
1337
1337
1336
1340
1355
1381
1447
1553
1699
1885
2123
2389
2682
3003
3368
3757
4095
4095
4095
4095
4095
4095
4095
3911
3613
3288
3014
2780
2579
2377
2203
2059
1932
1831
1755
1689
1663
1650
1644
1639
1656
1657
1661
1676
1687
1690
1699
1691
1679
1663
1645
1614
1591
1561
1517
1483
1445
1401
1355
1317
1279
1249
1231
1211
1198
1187
1189
1193
1209
1222
1241
1261
1275
1289
1299
1299
1301
1303
1307
1303
1303
1299
1288
1286
1270
1263
1261
1277
1317
1395
1500
1657
1866
2111
2392
2706
3060
3485
3932
4095
4095
4095
4095
4095
4095
4095
4095
4021
3612
3242
2920
2635
2387
2158
1961
1799
1661
1570
1507
1471
1465
1483
1507
1554
1599
1635
1688
1725
1749
1757
1751
1737
1694
1673
1629
1575
1513
1461
1413
1365
1328
1298
1276
1256
1243
1239
1242
1247
1252
1259
1261
1271
1272
1274
1271
1273
1268
1263
1268
1271
1267
1276
1289
1302
1305
1311
1317
1321
1327
1351
1392
1477
1599
1769
1993
2261
2553
2893
3270
3689
4077
4095
4095
4095
4095
4095
4095
4003
3625
3263
2941
2671
2421
2207
2018
1861
1737
1641
1578
1533
1519
1525
1549
1575
1607
1641
1657
1673
1688
1691
1683
1669
1648
1625
1591
1560
1517
1481
1453
1423
1397
1378
1357
1325
1304
1271
1249
1233
1226
1213
1220
1226
1215
1235
1241
1247
1268
1287
1305
1314
1316
1320
1311
1319
1305
1299
1303
1327
1385
1481
1634
1821
2059
2333
2648
2988
3379
3800
4095
4095
4095
4095
4095
4095
4073
3723
3389
3087
2816
2579
2356
2159
1993
1837
1719
1628
1571
1532
1525
1518
1532
1555
1587
1615
1639
1651
1670
1673
1671
1669
1645
1635
1613
1577
1533
1499
1459
1423
1385
1354
1320
1279
1253
1226
1207
1191
1189
1196
1208
1227
1243
1261
1271
1279
1293
1300
1304
1306
1305
1303
1289
1285
1274
1269
1264
1261
1261
1261
1267
1289
1319
1377
1465
1598
1780
2003
2255
2537
2840
3176
3539
3877
4095
4095
4095
4095
4095
3925
3644
3357
3087
2829
2611
2399
2213
2041
1897
1775
1683
1607
1561
1543
1543
1553
1574
1607
1644
1672
1699
1715
1717
1711
1711
1693
1661
1624
1581
1548
1513
1483
1444
1419
1387
1364
1337
1311
1288
1272
1259
1249
1236
1233
1227
1225
1237
1239
1251
1267
1279
1295
1311
1318
1325
1331
1323
1319
1305
1300
1293
1275
1257
1242
1228
1224
1226
1221
1237
1245
1271
1319
1395
1493
1629
1805
2020
2274
2557
2873
3229
3608
3975
4095
4095
4095
4095
4095
3993
3685
3367
3063
2793
2555
2335
2132
1944
1786
1663
1571
1499
1465
1455
1480
1516
1577
1635
1695
1755
1803
1837
1850
1851
1835
1811
1767
1722
1671
1613
1555
1500
1455
1423
1384
1363
1341
1332
1325
1323
1320
1321
1327
1333
1325
1325
1325
1325
1323
1319
1325
1331
1334
1337
1351
1357
1365
1366
1367
1366
1363
1355
1349
1354
1372
1403
1485
1605
1765
1960
2194
2443
2719
2985
3270
3533
3751
3897
3939
3883
3749
3543
3312
3084
2853
2651
2452
2266
2101
1945
1829
1725
1647
1607
1581
1579
1591
1625
1657
1709
1761
1807
1847
1871
1881
1883
1873
1850
1823
1786
1743
1695
1653
1609
1561
1523
1491
1464
1436
1418
1403
1395
1390
1391
1397
1405
1407
1418
1415
1421
1423
1432
1432
1436
1435
1438
1444
1444
1435
1437
1443
1429
1427
1415
1399
1399
1405
1423
1467
1542
1653
1821
2024
2267
2526
2811
3131
3471
3790
4060
4095
4095
4095
4061
3835
3547
3269
3012
2777
2569
2367
2204
2055
1927
1822
1747
1691
1661
1645
1657
1683
1719
1757
1799
1833
1868
1882
1898
1901
1893
1881
1853
1815
1773
1719
1673
1615
1571
1517
1481
1439
1404
1383
1358
1337
1321
1317
1308
1315
1317
1321
1335
1343
1353
1363
1365
1373
1383
1385
1391
1395
1387
1384
1379
1371
1367
1357
1351
1337
1333
1335
1326
1327
1335
1355
1391
1465
1574
1710
1899
2123
2366
2631
2899
3173
3433
3647
3795
3849
3797
3673
3476
3245
3020
2795
2587
2381
2191
2011
1855
1723
1621
1543
1469
1449
1439
1459
1485
1531
1587
1643
1699
1747
1788
1817
1827
1827
1815
1787
1760
1714
1672
1627
1571
1518
1464
1426
1387
1357
1327
1304
1275
1261
1255
1254
1255
1260
1266
1276
1277
1291
1305
1317
1336
1336
1356
1363
1371
1373
1381
1379
1374
1371
1365
1358
1355
1355
1365
1399
1467
1581
1724
1885
2087
2309
2547
2780
3007
3229
3411
3533
3560
3517
3411
3243
3055
2857
2653
2460
2275
2089
1929
1784
1673
1575
1503
1461
1435
1439
1459
1499
1555
1597
1652
1704
1755
1788
1815
1823
1833
1824
1807
1780
1746
1705
1660
1613
1567
1515
1479
1447
1413
1388
1368
1341
1319
1309
1304
1305
1307
1307
1319
1328
1325
1333
1337
1351
1363
1365
1379
1385
1396
1415
1445
1485
1572
1669
1806
1980
2191
2415
2659
2895
3136
3349
3512
3619
3631
3563
3440
3271
3080
2873
2676
2484
2313
2139
1977
1843
1723
1631
1571
1529
1517
1527
1555
1598
1647
1696
1752
1788
1830
1865
1895
1899
1896
1875
1849
1817
1767
1726
1675
1629
1581
1541
1493
1459
1428
1405
1382
1371
1357
1353
1355
1356
1361
1371
1384
1387
1407
1414
1427
1427
1437
1436
1437
1452
1486
1549
1637
1765
1918
2111
2328
2553
2791
3029
3274
3484
3647
3709
3703
3611
3449
3259
3049
2840
2649
2456
2277
2105
1949
1817
1707
1625
1571
1523
1525
1531
1565
1609
1653
1704
1757
1811
1851
1883
1900
1911
1899
1883
1848
1817
1771
1727
1669
1621
1579
1524
1485
1443
1416
1386
1365
1351
1331
1336
1341
1337
1343
1352
1359
1371
1378
1386
1397
1407
1420
1419
1423
1431
1431
1437
1447
1479
1529
1608
1719
1879
2075
2283
2523
2779
3036
3311
3554
3747
3859
3865
3785
3625
3427
3213
2995
2787
2588
2398
2219
2063
1903
1797
1695
1627
1587
1565
1563
1584
1621
1663
1707
1763
1804
1851
1882
1897
1899
1899
1882
1846
1811
1765
1705
1647
1599
1547
1500
1463
1429
1401
1379
1368
1359
1354
1353
1361
1366
1369
1373
1377
1383
1389
1399
1397
1389
1397
1402
1416
1417
1417
1419
1419
1425
1419
1414
1414
1406
1397
1395
1395
1418
1455
1530
1645
1815
2019
2249
2510
2789
3087
3407
3707
3972
4095
4095
4075
3928
3726
3493
3252
3020
2805
2607
2421
2259
2101
1977
1881
1805
1757
1727
1720
1722
1739
1769
1800
1834
1876
1899
1931
1947
1947
1946
1927
1903
1869
1829
1775
1735
1682
1631
1576
1541
1497
1452
1415
1383
1352
1323
1303
1299
1293
1294
1305
1330
1359
1384
1417
1439
1462
1483
1495
1501
1510
1515
1526
1543
1545
1557
1565
1568
1568
1565
1561
1546
1529
1518
1515
1528
1564
1625
1733
1875
2067
2280
2531
2791
3087
3383
3685
3933
4087
4095
4079
3945
3742
3527
3282
3053
2841
2647
2460
2296
2147
2014
1912
1831
1773
1743
1723
1727
1740
1767
1797
1831
1865
1900
1932
1951
1959
1959
1942
1916
1879
1835
1788
1741
1693
1645
1599
1555
1509
1469
1439
1415
1388
1374
1365
1357
1357
1363
1363
1374
1379
1395
1396
1399
1401
1406
1413
1415
1418
1423
1423
1431
1425
1427
1421
1422
1417
1419
1407
1403
1391
1389
1397
1419
1461
1544
1659
1813
2009
2223
2455
2707
2979
3255
3537
3771
3933
3987
3932
3811
3611
3372
3145
2919
2715
2525
2347
2189
2043
1929
1823
1755
1701
1675
1659
1671
1679
1707
1743
1788
1833
1875
1910
1929
1941
1945
1931
1907
1877
1829
1785
1739
1683
1631
1577
1518
1478
1437
1401
1379
1357
1338
1330
1323
1327
1339
1350
1359
1369
1382
1388
1400
1404
1425
1426
1421
1427
1422
1421
1422
1420
1420
1416
1413
1405
1404
1395
1403
1414
1429
1481
1559
1675
1827
2007
2218
2459
2696
2941
3184
3406
3570
3653
3646
3591
3437
3273
3091
2897
2711
2532
2358
2200
2053
1915
1805
1718
1659
1623
1607
1605
1623
1653
1695
1741
1782
1827
1855
1886
1903
1903
1903
1887
1865
1835
1797
1747
1701
1653
1607
1565
1525
1494
1465
1432
1407
1387
1373
1373
1371
1361
1356
1363
1366
1373
1390
1401
1425
1434
1447
1449
1448
1446
1445
1443
1437
1440
1437
1431
1437
1455
1506
1585
1700
1848
2030
2231
2443
2665
2891
3101
3279
3417
3481
3468
3391
3260
3101
2927
2759
2584
2408
2239
2091
1945
1820
1721
1644
1592
1561
1551
1559
1583
1615
1657
1709
1751
1798
1830
1850
1860
1867
1861
1843
1821
1781
1749
1700
1654
1612
1573
1529
1495
1465
1438
1419
1397
1379
1366
1361
1358
1359
1371
1374
1392
1406
1429
1449
1460
1467
1478
1484
1480
1481
1485
1493
1507
1553
1613
1705
1839
1999
2190
2407
2631
2851
3081
3288
3447
3551
3589
3538
3421
3275
3096
2907
2719
2539
2366
2204
2056
1927
1816
1725
1661
1624
1609
1623
1652
1695
1741
1787
1843
1891
1932
1959
1973
1980
1971
1951
1910
1871
1823
1767
1721
1661
1615
1567
1523
1494
1459
1435
1415
1403
1399
1401
1405
1415
1419
1433
1444
1459
1471
1483
1495
1495
1509
1511
1517
1529
1562
1612
1700
1817
1973
2159
2367
2603
2847
3117
3376
3624
3800
3897
3913
3833
3674
3477
3255
3033
2813
2615
2415
2239
2082
1941
1823
1721
1651
1613
1597
1611
1619
1663
1710
1757
1815
1861
1894
1927
1941
1939
1932
1896
1863
1819
1775
1721
1672
1623
1573
1522
1485
1455
1431
1417
1401
1397
1389
1388
1383
1391
1395
1400
1408
1420
1429
1434
1443
1449
1445
1449
1448
1460
1487
1543
1623
1743
1893
2073
2279
2503
2742
2991
3229
3455
3629
3747
3751
3691
3565
3381
3184
2985
2777
2581
2393
2227
2074
1943
1828
1745
1677
1641
1625
1629
1643
1675
1718
1761
1802
1838
1868
1891
1899
1904
1889
1865
1835
1796
1751
1701
1653
1605
1559
1514
1480
1453
1431
1415
1389
1375
1371
1371
1383
1395
1405
1423
1433
1447
1449
1467
1465
1468
1477
1465
1467
1467
1471
1495
1542
1625
1743
1904
2105
2333
2589
2856
3149
3439
3711
3931
4031
4046
3965
3812
3611
3375
3128
2907
2702
2510
2331
2158
2007
1893
1785
1721
1673
1652
1647
1657
1685
1717
1757
1789
1823
1854
1870
1881
1881
1869
1849
1819
1773
1735
1687
1637
1589
1544
1499
1460
1429
1403
1384
1369
1356
1349
1337
1332
1323
1339
1352
1367
1385
1395
1416
1423
1433
1437
1437
1432
1432
1435
1437
1453
1483
1543
1636
1765
1939
2148
2386
2635
2899
3191
3475
3753
3945
4056
4056
3965
3801
3589
3341
3101
2867
2669
2474
2297
2137
1982
1880
1783
1719
1670
1647
1647
1655
1679
1716
1741
1779
1810
1831
1847
1855
1849
1842
1815
1783
1742
1703
1658
1611
1559
1509
1461
1427
1389
1364
1335
1325
1317
1311
1311
1308
1319
1327
1332
1344
1355
1367
1377
1381
1379
1389
1382
1378
1373
1370
1371
1371
1369
1369
1367
1369
1383
1384
1415
1463
1558
1679
1849
2059
2293
2553
2837
3125
3431
3701
3926
4043
4047
3966
3788
3549
3310
3062
2831
2619
2427
2250
2087
1948
1821
1723
1655
1608
1581
1579
1595
1636
1661
1704
1749
1780
1809
1831
1839
1839
1833
1814
1785
1743
1701
1655
1607
1555
1509
1455
1417
1387
1359
1335
1320
1305
1304
1293
1297
1299
1305
1315
1324
1334
1342
1357
1364
1373
1385
1387
1395
1391
1397
1387
1389
1375
1364
1355
1335
1332
1320
1319
1323
1355
1405
1485
1610
1769
1965
2189
2427
2677
2935
3192
3438
3631
3767
3793
3739
3596
3411
3193
2975
2760
2569
2365
2187
2015
1875
1753
1659
1603
1567
1561
1574
1597
1635
1691
1739
1787
1840
1876
1895
1916
1917
1909
1878
1844
1797
1757
1703
1647
1595
1551
1495
1455
1415
1378
1355
1337
1327
1321
1325
1335
1335
1344
1363
1367
1381
1382
1400
1415
1423
1429
1439
1443
1443
1443
1445
1444
1439
1437
1443
1460
1491
1560
1661
1799
1973
2181
2406
2645
2887
3131
3369
3560
3693
3747
3705
3587
3409
3224
3017
2807
2619
2428
2255
2096
1961
1843
1749
1678
1639
1621
1627
1641
1679
1724
1774
1823
1871
1912
1939
1957
1962
1947
1927
1891
1848
1805
1753
1695
1643
1582
1548
1498
1467
1435
1413
1397
1387
1375
1371
1375
1382
1397
1398
1401
1405
1408
1413
1421
1432
1429
1428
1431
1433
1431
1432
1438
1449
1489
1551
1628
1769
1931
2126
2349
2589
2837
3091
3339
3547
3709
3793
3775
3683
3516
3323
3117
2901
2707
2515
2333
2169
2015
1884
1773
1689
1625
1593
1581
1592
1624
1663
1705
1756
1807
1853
1895
1919
1932
1939
1933
1903
1867
1831
1767
1716
1657
1597
1553
1500
1456
1427
1395
1375
1354
1351
1335
1339
1351
1353
1357
1358
1368
1379
1387
1397
1407
1419
1430
1428
1434
1439
1443
1437
1431
1429
1417
1414
1419
1433
1464
1519
1627
1763
1942
2155
2392
2659
2931
3221
3519
3796
3989
4088
4091
3987
3811
3591
3345
3115
2888
2677
2485
2311
2151
2006
1893
1805
1747
1707
1695
1699
1719
1749
1781
1824
1863
1899
1930
1945
1962
1957
1945
1913
1881
1840
1801
1755
1711
1661
1612
1565
1517
1477
1437
1415
1399
1376
1368
1373
1365
1363
1369
1373
1376
1383
1391
1405
1407
1422
1430
1439
1439
1447
1432
1435
1427
1429
1419
1415
1399
1385
1373
1367
1365
1364
1364
1371
1390
1433
1512
1625
1779
1972
2202
2455
2731
3027
3351
3670
3948
4095
4095
4095
4095
3887
3659
3390
3139
2917
2686
2489
2319
2157
2013
1912
1819
1756
1725
1709
1722
1751
1787
1837
1885
1927
1957
1980
1995
1998
1994
1977
1945
1907
1863
1801
1748
1689
1639
1581
1531
1500
1463
1438
1416
1403
1392
1385
1387
1383
1381
1383
1383
1381
1391
1400
1414
1422
1431
1429
1431
1439
1440
1448
1443
1439
1435
1439
1435
1423
1427
1418
1415
1399
1395
1386
1375
1365
1354
1363
1375
1420
1496
1611
1765
1967
2197
2456
2725
3016
3321
3629
3871
4036
4075
4023
3888
3685
3469
3231
3007
2792
2597
2407
2236
2087
1948
1837
1755
1695
1664
1651
1654
1685
1719
1770
1821
1867
1903
1949
1967
1975
1972
1952
1925
1886
1848
1791
1743
1689
1640
1583
1550
1491
1453
1425
1395
1381
1367
1363
1359
1369
1373
1383
1387
1391
1401
1417
1421
1427
1433
1438
1446
1455
1453
1451
1451
1446
1438
1433
1427
1421
1417
1407
1407
1420
1443
1471
1547
1644
1778
1949
2157
2385
2635
2890
3148
3405
3623
3783
3861
3835
3735
3566
3357
3133
2919
2717
2521
2341
2181
2027
1898
1791
1721
1673
1647
1653
1677
1711
1769
1819
1871
1914
1955
1980
1994
2001
1991
1977
1944
1901
1853
1807
1755
1699
1651
1605
1557
1516
1483
1451
1429
1405
1390
1379
1368
1359
1355
1359
1363
1375
1383
1400
1401
1416
1423
1439
1440
1449
1449
1446
1439
1430
1423
1422
1431
1465
1523
1621
1742
1908
2105
2331
2569
2824
3087
3352
3593
3789
3900
3925
3851
3691
3493
3259
3039
2828
2631
2443
2265
2104
1966
1849
1759
1691
1651
1631
1635
1655
1692
1745
1791
1845
1885
1919
1949
1960
1963
1947
1918
1893
1839
1787
1733
1673
1609
1559
1499
1455
1406
1375
1337
1323
1318
1309
1309
1307
1315
1316
1322
1337
1351
1363
1366
1375
1379
1387
1397
1399
1399
1405
1413
1416
1416
1421
1439
1471
1539
1636
1775
1960
2187
2445
2735
3059
3419
3801
4095
4095
4095
4095
4095
4095
4095
3751
3422
3119
2853
2615
2407
2223
2067
1931
1819
1743
1689
1672
1671
1687
1726
1779
1836
1901
1960
2005
2037
2059
2066
2063
2038
2005
1961
1919
1867
1823
1780
1733
1691
1631
1593
1553
1525
1518
1519
1523
1541
1549
1557
1567
1575
1581
1591
1593
1593
1593
1590
1604
1594
1584
1587
1584
1604
1638
1699
1811
1983
2235
2540
2905
3355
3929
4095
4095
4095
4095
4095
4095
4095
4095
4095
4095
4095
4095
4095
4095
3951
3463
3059
2745
2472
2247
2065
1899
1790
1707
1655
1625
1619
1627
1642
1669
1691
1719
1739
1759
1763
1754
1735
1707
1678
1631
1589
1551
1509
1477
1449
1415
1388
1374
1355
1341
1331
1329
1320
1321
1320
1328
1333
1334
1339
1340
1351
1355
1352
1351
1340
1341
1357
1363
1388
1446
1551
1709
1942
2239
2591
3007
3527
4095
4095
4095
4095
4095
4095
4095
4095
4095
4095
4095
4095
4095
4095
3512
3082
2727
2445
2211
2023
1875
1770
1710
1688
1702
1733
1781
1835
1897
1951
2003
2038
2053
2041
2024
1993
1941
1889
1823
1755
1677
1611
1528
1471
1405
1358
1309
1272
1247
1221
1199
1191
1183
1180
1179
1179
1189
1192
1208
1215
1240
1255
1262
1271
1276
1277
1275
1268
1255
1251
1243
1245
1260
1298
1373
1503
1708
1967
2297
2669
3109
3635
4095
4095
4095
4095
4095
4095
4095
4095
4095
4095
4095
3960
3434
2996
2643
2327
2063
1829
1651
1506
1407
1351
1323
1327
1356
1396
1447
1495
1547
1583
1608
1620
1613
1597
1565
1520
1477
1419
1355
1299
1237
1189
1135
1098
1056
1039
1016
1011
997
993
995
1001
1013
1032
1048
1061
1080
1087
1100
1108
1122
1138
1145
1145
1149
1147
1149
1147
1147
1142
1142
1144
1160
1183
1236
1311
1432
1593
1821
2093
2411
2758
3133
3550
3989
4095
4095
4095
4095
4095
4095
3881
3503
3161
2847
2581
2332
2103
1907
1741
1604
1497
1431
1395
1384
1404
1447
1501
1576
1637
1699
1748
1779
1798
1802
1788
1764
1723
1672
1612
1547
1483
1427
1368
1315
1271
1229
1193
1167
1149
1131
1123
1119
1125
1125
1135
1146
1175
1192
1213
1239
1254
1263
1273
1285
1286
1279
1285
1290
1289
1293
1311
1339
1390
1480
1605
1749
1955
2195
2488
2813
3177
3573
3996
4095
4095
4095
4095
4095
4095
3903
3547
3197
2891
2613
2351
2123
1919
1749
1605
1494
1420
1379
1367
1375
1404
1449
1500
1555
1609
1647
1688
1711
1727
1727
1708
1695
1658
1623
1579
1531
1483
1437
1387
1341
1300
1269
1243
1223
1211
1209
1209
1227
1237
1251
1257
1261
1275
1279
1297
1304
1319
1325
1335
1351
1371
1407
1478
1581
1707
1885
2108
2376
2671
3021
3401
3833
4095
4095
4095
4095
4095
4095
4095
4095
3752
3384
3060
2776
2522
2293
2091
1904
1756
1639
1554
1491
1471
1464
1483
1521
1555
1592
1631
1657
1685
1699
1695
1693
1679
1647
1617
1564
1518
1477
1428
1382
1340
1304
1274
1257
1241
1237
1233
1234
1251
1263
1275
1293
1307
1321
1331
1333
1330
1331
1325
1323
1325
1333
1361
1407
1500
1629
1807
2024
2277
2551
2856
3183
3547
3917
4095
4095
4095
4095
4095
4095
3869
3563
3282
3019
2782
2567
2360
2183
2023
1881
1770
1681
1619
1579
1561
1567
1586
1619
1641
1676
1705
1739
1755
1771
1771
1759
1735
1701
1659
1614
1561
1507
1448
1401
1352
1307
1271
1245
1228
1221
1223
1235
1245
1263
1287
1307
1321
1339
1350
1353
1343
1340
1335
1325
1321
1325
1335
1354
1397
1449
1559
1699
1881
2108
2395
2713
3089
3518
3995
4095
4095
4095
4095
4095
4095
4095
4095
4095
3785
3388
3049
2749
2491
2251
2029
1847
1690
1567
1483
1437
1419
1416
1444
1484
1541
1591
1643
1688
1711
1726
1726
1723
1693
1647
1607
1545
1480
1419
1363
1305
1267
1236
1213
1197
1199
1199
1213
1239
1256
1272
1284
1291
1293
1299
1299
1299
1302
1311
1309
1303
1303
1303
1297
1304
1307
1317
1327
1340
1360
1427
1500
1629
1803
2021
2301
2644
3021
3495
4049
4095
4095
4095
4095
4095
4095
4095
4095
4095
4095
3908
3405
3002
2659
2367
2117
1907
1736
1611
1523
1481
1471
1483
1511
1557
1599
1641
1677
1692
1711
1711
1693
1671
1639
1603
1557
1503
1459
1415
1375
1335
1304
1277
1259
1235
1213
1193
1178
1171
1149
1145
1147
1151
1164
1179
1199
1223
1243
1273
1293
1307
1319
1325
1333
1332
1327
1320
1308
1295
1287
1266
1257
1267
1305
1382
1507
1677
1900
2157
2459
2788
3161
3593
4039
4095
4095
4095
4095
4095
4095
4095
3917
3532
3163
2851
2581
2335
2109
1917
1753
1624
1525
1453
1413
1397
1407
1439
1488
1541
1605
1652
1696
1727
1753
1769
1770
1757
1725
1687
1637
1583
1532
1482
1433
1383
1339
1315
1285
1257
1241
1235
1229
1236
1251
1259
1273
1297
1317
1330
1337
1355
1363
1370
1370
1355
1359
1363
1356
1350
1341
1351
1343
1343
1379
1427
1503
1620
1772
1978
2227
2515
2827
3192
3608
4015
4095
4095
4095
4095
4095
4095
4095
3852
3497
3167
2871
2601
2365
2147
1948
1785
1645
1542
1471
1427
1419
1439
1485
1541
1597
1653
1699
1736
1755
1766
1763
1739
1705
1669
1628
1573
1517
1467
1421
1373
1334
1297
1263
1235
1213
1203
1196
1197
1196
1200
1199
1199
1199
1203
1205
1208
1212
1213
1221
1229
1239
1243
1255
1257
1252
1245
1230
1213
1199
1197
1211
1253
1331
1451
1615
1819
2063
2325
2596
2867
3148
3427
3645
3789
3857
3816
3699
3527
3309
3097
2873
2677
2495
2323
2163
2025
1907
1815
1734
1687
1656
1643
1647
1663
1691
1721
1763
1789
1811
1827
1833
1839
1823
1811
1783
1749
1705
1657
1606
1559
1511
1464
1421
1379
1337
1309
1285
1263
1257
1254
1254
1269
1291
1315
1335
1368
1385
1396
1406
1423
1431
1429
1419
1419
1414
1419
1443
1491
1567
1693
1863
2075
2327
2591
2876
3193
3525
3827
4060
4095
4095
4095
3961
3740
3491
3238
2997
2787
2592
2415
2265
2124
2009
1891
1806
1740
1679
1645
1625
1619
1623
1633
1639
1660
1685
1703
1717
1727
1737
1723
1707
1683
1657
1624
1578
1540
1489
1439
1392
1357
1309
1275
1249
1233
1223
1221
1225
1241
1253
1263
1277
1301
1319
1335
1350
1357
1357
1355
1351
1335
1321
1317
1319
1339
1380
1453
1571
1725
1918
2147
2382
2643
2893
3157
3413
3627
3775
3845
3819
3727
3565
3363
3148
2955
2751
2579
2396
2233
2087
1959
1849
1750
1683
1625
1590
1571
1568
1589
1615
1651
1693
1724
1761
1779
1791
1800
1788
1770
1747
1705
1645
1579
1512
1466
1423
1383
1353
1335
1323
1317
1311
1311
1310
1327
1333
1350
1354
1357
1357
1357
1352
1347
1353
1356
1351
1356
1355
1353
1354
1358
1363
1359
1379
1400
1447
1514
1615
1757
1927
2133
2359
2617
2895
3175
3469
3721
3915
4003
3989
3903
3725
3499
3261
3021
2797
2586
2390
2201
2044
1907
1785
1695
1630
1595
1588
1591
1617
1659
1709
1755
1787
1819
1840
1862
1865
1845
1821
1803
1763
1723
1675
1623
1578
1527
1491
1453
1421
1390
1370
1350
1327
1311
1303
1289
1277
1271
1276
1292
1301
1310
1325
1339
1359
1380
1398
1404
1420
1419
1421
1419
1418
1413
1401
1399
1401
1430
1481
1583
1724
1901
2121
2374
2635
2910
3209
3500
3765
3960
4039
4039
3929
3751
3533
3291
3055
2841
2642
2456
2286
2136
1995
1879
1784
1709
1659
1623
1597
1588
1581
1592
1629
1659
1694
1733
1763
1783
1797
1801
1797
1783
1755
1733
1691
1639
1591
1541
1481
1432
1389
1340
1301
1277
1256
1256
1252
1263
1276
1294
1317
1335
1350
1370
1379
1386
1387
1391
1385
1371
1359
1339
1331
1321
1301
1297
1303
1309
1333
1373
1438
1529
1669
1827
2025
2249
2478
2729
2954
3206
3400
3560
3654
3653
3593
3466
3295
3111
2921
2731
2547
2361
2199
2037
1896
1773
1673
1599
1557
1532
1528
1544
1579
1607
1647
1689
1723
1765
1785
1803
1800
1787
1773
1747
1709
1672
1629
1584
1545
1509
1479
1445
1417
1391
1375
1359
1343
1337
1333
1332
1317
1320
1318
1319
1327
1341
1363
1371
1387
1391
1397
1415
1423
1429
1435
1437
1439
1451
1489
1547
1625
1742
1895
2077
2283
2517
2761
3005
3257
3495
3688
3783
3785
3693
3537
3341
3117
2907
2699
2493
2301
2135
1975
1840
1727
1645
1597
1573
1573
1588
1622
1661
1711
1767
1813
1847
1877
1892
1891
1877
1849
1819
1775
1739
1691
1647
1609
1567
1533
1503
1470
1445
1419
1391
1373
1357
1337
1325
1322
1333
1339
1364
1373
1385
1402
1417
1429
1431
1445
1451
1449
1448
1447
1449
1483
1519
1619
1737
1896
2090
2317
2567
2816
3089
3353
3602
3798
3917
3909
3829
3673
3484
3261
3047
2835
2648
2462
2287
2136
1991
1869
1773
1694
1650
1611
1599
1608
1621
1647
1689
1726
1771
1805
1831
1849
1851
1848
1836
1815
1767
1734
1689
1639
1596
1555
1512
1483
1450
1417
1403
1385
1381
1369
1371
1370
1371
1379
1385
1389
1394
1401
1402
1413
1413
1415
1420
1429
1448
1483
1559
1650
1784
1960
2165
2392
2636
2893
3170
3417
3646
3827
3913
3900
3796
3643
3431
3219
2997
2790
2591
2409
2246
2101
1964
1865
1771
1720
1677
1651
1646
1657
1686
1707
1759
1789
1818
1845
1863
1871
1855
1843
1819
1780
1739
1695
1646
1599
1555
1508
1471
1435
1401
1369
1352
1325
1304
1273
1254
1233
1198
1175
1167
1149
1145
1149
1161
1174
1187
1211
1244
1286
1353
1453
1608
1816
2075
2391
2749
3179
3704
4095
4095
4095
4095
4095
4095
4095
4095
4095
4095
4095
4095
4095
3759
3258
2878
2549
2283
2065
1874
1735
1653
1597
1590
1613
1644
1709
1755
1803
1851
1887
1911
1915
1919
1903
1877
1835
1783
1727
1676
1614
1566
1507
1455
1407
1368
1326
1302
1277
1271
1255
1255
1254
1261
1271
1291
1301
1315
1325
1323
1323
1323
1321
1315
1305
1315
1293
1301
1321
1375
1477
1635
1839
2121
2415
2749
3114
3511
3911
4095
4095
4095
4095
4095
3989
3642
3282
2952
2652
2373
2111
1873
1659
1494
1353
1252
1197
1177
1193
1243
1311
1391
1485
1576
1657
1723
1790
1828
1850
1850
1830
1789
1739
1685
1625
1560
1487
1431
1372
1315
1273
1251
1211
1203
1182
1184
1195
1215
1247
1275
1315
1339
1370
1401
1427
1455
1477
1495
1508
1513
1524
1547
1574
1635
1741
1895
2120
2397
2709
3055
3483
3950
4095
4095
4095
4095
4095
4095
4095
4095
4095
3722
3263
2877
2547
2251
1979
1753
1562
1427
1334
1289
1295
1343
1403
1495
1593
1700
1783
1867
1925
1960
1981
1973
1942
1893
1829
1755
1681
1593
1513
1448
1381
1331
1290
1256
1235
1222
1225
1233
1241
1259
1279
1292
1319
1337
1361
1375
1385
1402
1403
1407
1407
1407
1403
1413
1435
1496
1591
1747
1928
2168
2439
2729
3043
3376
3699
3949
4085
4093
3964
3759
3484
3193
2906
2623
2357
2095
1852
1627
1435
1279
1171
1107
1072
1084
1130
1199
1301
1414
1514
1627
1723
1806
1863
1897
1907
1897
1865
1821
1763
1691
1621
1551
1479
1407
1351
1303
1261
1241
1213
1203
1194
1193
1197
1210
1213
1231
1241
1264
1276
1293
1305
1321
1325
1333
1335
1338
1342
1351
1351
1353
1365
1395
1463
1574
1741
1961
2234
2549
2907
3311
3772
4095
4095
4095
4095
4095
4095
4095
4095
3721
3295
2923
2605
2301
2031
1797
1591
1445
1327
1270
1259
1279
1337
1420
1517
1619
1718
1813
1889
1947
1981
1993
1990
1961
1919
1864
1804
1727
1657
1592
1517
1454
1403
1355
1318
1289
1272
1261
1258
1257
1268
1276
1278
1293
1303
1311
1322
1333
1337
1351
1362
1372
1383
1387
1389
1389
1387
1398
1415
1449
1515
1640
1813
2040
2331
2675
3079
3573
4095
4095
4095
4095
4095
4095
4095
4095
4095
4095
4095
3883
3363
2927
2578
2265
1989
1755
1577
1446
1367
1335
1351
1401
1471
1567
1661
1767
1854
1919
1977
2003
2008
1997
1959
1907
1838
1769
1695
1624
1549
1483
1423
1373
1327
1302
1271
1257
1245
1247
1247
1251
1264
1289
1303
1327
1351
1368
1379
1395
1392
1403
1405
1414
1421
1417
1415
1403
1391
1391
1385
1379
1386
1421
1499
1631
1833
2105
2423
2791
3253
3833
4095
4095
4095
4095
4095
4095
4095
4095
4095
4095
4095
4095
3830
3291
2859
2519
2207
1952
1753
1597
1498
1445
1439
1463
1514
1595
1686
1766
1844
1903
1949
1980
1982
1965
1928
1881
1817
1751
1678
1611
1544
1472
1421
1364
1323
1287
1259
1239
1235
1228
1223
1230
1240
1267
1292
1317
1341
1354
1371
1387
1387
1398
1401
1401
1399
1395
1390
1389
1373
1374
1371
1364
1355
1354
1351
1357
1381
1447
1564
1746
1991
2291
2653
3081
3608
4095
4095
4095
4095
4095
4095
4095
4095
4095
4095
4095
4095
3955
3384
2927
2555
2251
1975
1759
1591
1487
1432
1426
1454
1511
1593
1683
1768
1846
1915
1965
1995
2008
1995
1963
1920
1864
1781
1711
1631
1565
1487
1421
1371
1323
1287
1263
1243
1227
1223
1223
1225
1241
1245
1271
1289
1315
1333
1353
1365
1369
1382
1391
1387
1385
1385
1385
1384
1383
1381
1371
1361
1351
1339
1347
1355
1385
1465
1595
1782
2028
2339
2695
3115
3637
4095
4095
4095
4095
4095
4095
4095
4095
4095
4095
4095
3885
3353
2917
2565
2255
1976
1752
1571
1445
1379
1365
1385
1443
1526
1615
1708
1803
1875
1931
1963
1979
1981
1963
1915
1863
1789
1722
1643
1574
1499
1437
1375
1328
1295
1267
1253
1241
1236
1237
1240
1253
1261
1276
1290
1304
1319
1327
1339
1350
1358
1369
1367
1367
1369
1365
1365
1359
1361
1356
1356
1352
1359
1398
1471
1617
1805
2063
2366
2701
3087
3551
4069
4095
4095
4095
4095
4095
4095
4095
4095
4087
3566
3145
2779
2469
2189
1944
1738
1559
1447
1375
1341
1359
1407
1492
1588
1675
1769
1847
1917
1970
1996
2007
1991
1958
1901
1835
1769
1692
1621
1545
1471
1415
1359
1315
1277
1255
1233
1216
1215
1225
1227
1237
1245
1258
1277
1299
1305
1318
1327
1341
1349
1357
1359
1368
1367
1371
1363
1363
1353
1357
1352
1365
1389
1459
1571
1747
1963
2239
2553
2909
3309
3771
4095
4095
4095
4095
4095
4095
4095
4014
3601
3196
2847
2536
2259
2009
1781
1599
1447
1343
1277
1261
1269
1310
1369
1455
1545
1637
1717
1786
1844
1877
1883
1878
1847
1811
1751
1691
1620
1547
1481
1420
1367
1311
1263
1229
1195
1176
1161
1157
1157
1158
1169
1189
1199
1222
1245
1273
1287
1301
1307
1323
1323
1326
1324
1321
1317
1311
1310
1308
1315
1327
1373
1477
1640
1863
2135
2444
2779
3159
3576
3988
4095
4095
4095
4095
4095
4095
3832
3447
3084
2760
2471
2191
1943
1721
1530
1395
1290
1239
1215
1245
1301
1375
1467
1575
1663
1767
1839
1907
1958
1961
1961
1935
1891
1829
1759
1691
1618
1553
1469
1407
1357
1309
1277
1253
1241
1236
1240
1243
1261
1279
1301
1321
1338
1362
1373
1378
1385
1392
1399
1397
1405
1405
1417
1429
1460
1525
1636
1789
2003
2259
2548
2887
3261
3679
4093
4095
4095
4095
4095
4095
4095
4095
3721
3316
2953
2644
2348
2075
1829
1621
1455
1349
1294
1291
1319
1396
1497
1614
1734
1845
1951
2039
2111
2153
2168
2156
2119
2069
1995
1917
1829
1747
1669
1595
1530
1472
1421
1379
1353
1325
1309
1304
1301
1303
1311
1320
1331
1351
1361
1369
1389
1402
1421
1431
1437
1437
1439
1433
1435
1443
1477
1531
1635
1779
1951
2165
2392
2623
2854
3065
3243
3363
3411
3358
3239
3066
2861
2638
2407
2171
1935
1711
1504
1321
1176
1065
991
967
972
1011
1077
1171
1278
1395
1509
1624
1716
1798
1855
1893
1912
1891
1862
1815
1756
1692
1625
1556
1490
1428
1371
1327
1294
1268
1231
1223
1207
1204
1211
1224
1229
1241
1251
1271
1289
1303
1317
1343
1369
1381
1399
1397
1400
1391
1389
1392
1387
1395
1397
1418
1459
1543
1661
1847
2088
2365
2687
3051
3465
3911
4095
4095
4095
4095
4095
4095
4095
3757
3326
2953
2619
2309
2015
1755
1526
1349
1215
1136
1101
1111
1158
1235
1337
1460
1591
1711
1835
1926
1997
2043
2077
2070
2040
1996
1943
1871
1797
1715
1629
1557
1483
1428
1375
1335
1306
1275
1261
1263
1261
1276
1285
1301
1309
1324
1337
1353
1359
1367
1381
1391
1401
1403
1415
1415
1415
1417
1422
1435
1463
1525
1642
1815
2055
2351
2697
3112
3639
4095
4095
4095
4095
4095
4095
4095
4095
4095
4095
4095
4095
3655
3143
2719
2366
2071
1811
1609
1455
1359
1315
1324
1374
1449
1549
1655
1767
1869
1949
2009
2053
2069
2065
2032
1981
1917
1847
1764
1685
1611
1529
1459
1397
1352
1302
1277
1254
1245
1239
1245
1254
1260
1275
1293
1306
1321
1339
1340
1361
1366
1373
1383
1385
1389
1383
1384
1376
1375
1373
1381
1380
1432
1501
1647
1843
2123
2453
2835
3323
3929
4095
4095
4095
4095
4095
4095
4095
4095
4095
4095
4095
4095
4095
3477
2990
2612
2282
2009
1789
1621
1493
1432
1413
1435
1496
1573
1648
1727
1813
1877
1931
1960
1971
1958
1937
1895
1837
1779
1711
1643
1573
1503
1435
1375
1319
1272
1245
1241
1238
1239
1239
1252
1256
1262
1275
1284
1293
1295
1306
1312
1319
1321
1321
1324
1332
1335
1339
1339
1338
1337
1335
1332
1331
1339
1355
1403
1487
1636
1845
2133
2463
2857
3346
3943
4095
4095
4095
4095
4095
4095
4095
4095
4095
4095
4095
4095
3631
3143
2744
2419
2131
1891
1701
1565
1485
1446
1451
1491
1551
1621
1701
1783
1845
1903
1945
1965
1955
1941
1901
1863
1811
1753
1693
1624
1562
1497
1438
1389
1357
1319
1294
1274
1267
1262
1262
1271
1273
1289
1293
1304
1317
1328
1341
1363
1365
1375
1389
1389
1395
1399
1395
1391
1383
1372
1365
1355
1351
1327
1325
1334
1387
1479
1640
1868
2154
2502
2899
3353
3928
4095
4095
4095
4095
4095
4095
4095
4095
4095
4095
4095
3601
3126
2740
2421
2135
1895
1699
1557
1461
1417
1399
1433
1495
1573
1659
1749
1829
1901
1955
1997
2011
2010
1983
1945
1897
1823
1755
1683
1606
1529
1467
1415
1359
1320
1293
1269
1252
1251
1251
1251
1259
1275
1293
1309
1323
1332
1332
1327
1332
1335
1352
1357
1361
1370
1375
1371
1381
1369
1373
1363
1367
1383
1421
1501
1625
1823
2085
2389
2735
3144
3611
4095
4095
4095
4095
4095
4095
4095
4095
4095
3940
3475
3068
2731
2423
2151
1915
1711
1554
1435
1368
1348
1362
1407
1470
1565
1643
1726
1804
1869
1909
1931
1944
1930
1903
1863
1813
1749
1673
1605
1526
1461
1405
1359
1311
1287
1253
1232
1212
1209
1210
1223
1234
1247
1258
1271
1289
1303
1311
1325
1333
1343
1350
1343
1341
1339
1336
1333
1331
1324
1337
1377
1456
1593
1779
2019
2309
2629
2973
3369
3783
4095
4095
4095
4095
4095
4095
3835
3471
3116
2803
2521
2261
2021
1813
1629
1489
1383
1323
1301
1311
1357
1421
1507
1593
1689
1769
1835
1895
1933
1951
1943
1919
1882
1835
1774
1711
1642
1579
1519
1465
1407
1367
1331
1301
1279
1271
1275
1273
1285
1295
1304
1315
1321
1340
1343
1363
1368
1379
1385
1389
1395
1396
1395
1399
1429
1485
1593
1741
1941
2197
2479
2789
3125
3495
3853
4095
4095
4095
4095
4095
3821
3499
3192
2903
2643
2392
2153
1943
1771
1625
1508
1436
1390
1383
1400
1445
1517
1608
1696
1783
1864
1918
1966
1981
1988
1971
1945
1907
1849
1789
1725
1657
1597
1528
1469
1405
1373
1334
1317
1297
1277
1286
1289
1290
1310
1322
1339
1353
1361
1378
1385
1385
1384
1385
1388
1387
1381
1389
1429
1500
1630
1801
2025
2283
2568
2871
3207
3528
3818
4027
4095
4095
3965
3754
3491
3213
2943
2703
2471
2247
2037
1848
1696
1576
1479
1407
1381
1383
1419
1478
1545
1619
1695
1767
1819
1867
1901
1929
1935
1925
1895
1848
1791
1727
1672
1613
1551
1497
1449
1403
1372
1351
1333
1319
1310
1305
1317
1321
1335
1343
1370
1385
1398
1407
1427
1431
1446
1451
1460
1459
1451
1447
1463
1503
1589
1711
1893
2121
2387
2687
3027
3405
3821
4095
4095
4095
4095
4095
4095
4095
3803
3435
3098
2805
2547
2311
2107
1931
1789
1693
1628
1604
1611
1641
1701
1767
1829
1903
1965
2013
2055
2077
2085
2071
2039
1995
1941
1875
1803
1720
1635
1568
1496
1427
1371
1317
1278
1259
1243
1237
1230
1227
1242
1257
1288
1293
1323
1355
1381
1397
1415
1431
1439
1448
1451
1445
1439
1431
1419
1434
1481
1567
1708
1903
2160
2453
2751
3101
3485
3874
4095
4095
4095
4095
4095
4095
3996
3687
3355
3050
2787
2537
2327
2136
1967
1823
1708
1613
1544
1494
1467
1463
1477
1488
1515
1545
1577
1600
1623
1635
1631
1613
1589
1559
1528
1499
1469
1440
1419
1396
1389
1385
1377
1375
1371
1373
1379
1383
1395
1403
1415
1420
1433
1448
1446
1448
1454
1460
1465
1471
1471
1468
1464
1463
1467
1483
1506
1579
1691
1869
2091
2344
2635
2941
3286
3641
3967
4095
4095
4095
4095
4095
3945
3683
3404
3145
2911
2703
2536
2386
2251
2137
2027
1928
1843
1772
1709
1669
1634
1620
1613
1613
1620
1635
1642
1653
1673
1678
1675
1661
1645
1623
1600
1573
1541
1501
1471
1453
1459
1455
1445
1437
1417
1383
1355
1307
1267
1215
1167
1117
1069
1018
981
939
921
885
875
875
873
877
894
925
989
1087
1226
1415
1647
1906
2183
2449
2694
2909
3087
3177
3183
3129
3005
2838
2649
2441
2227
2009
1813
1622
1453
1321
1209
1145
1109
1094
1099
1129
1176
1238
1305
1386
1465
1539
1587
1617
1636
1636
1629
1614
1577
1553
1508
1466
1427
1385
1340
1315
1293
1263
1245
1237
1231
1228
1234
1238
1255
1278
1304
1327
1352
1369
1395
1419
1447
1463
1481
1492
1507
1517
1555
1599
1689
1831
2015
2255
2536
2853
3213
3631
4053
4095
4095
4095
4095
4095
4095
4095
4023
3621
3235
2903
2615
2356
2131
1934
1779
1647
1565
1519
1507
1524
1565
1621
1685
1751
1814
1863
1877
1877
1862
1833
1783
1725
1669
1597
1519
1460
1389
1333
1289
1255
1233
1214
1209
1211
1222
1240
1253
1277
1308
1331
1359
1389
1415
1427
1439
1449
1459
1465
1466
1465
1461
1469
1507
1573
1681
1845
2066
2323
2631
2968
3353
3797
4095
4095
4095
4095
4095
4095
4095
4095
3940
3511
3124
2787
2494
2228
1995
1773
1607
1478
1391
1356
1353
1383
1432
1501
1590
1675
1771
1855
1938
1995
2039
2072
2065
2040
2013
1966
1911
1850
1784
1724
1664
1613
1560
1510
1461
1423
1395
1363
1333
1321
1307
1302
1303
1301
1307
1319
1311
1316
1325
1342
1357
1363
1380
1401
1449
1518
1651
1833
2076
2375
2716
3111
3594
4093
4095
4095
4095
4095
4095
4095
4095
4095
4095
4095
3837
3416
3047
2745
2470
2223
2003
1815
1655
1532
1453
1408
1390
1397
1421
1455
1493
1528
1557
1575
1580
1582
1579
1572
1547
1517
1487
1460
1429
1398
1365
1331
1297
1256
1229
1199
1181
1163
1152
1149
1145
1147
1157
1164
1171
1177
1183
1187
1195
1199
1207
1212
1236
1288
1371
1503
1699
1948
2247
2581
2943
3369
3829
4095
4095
4095
4095
4095
4095
4095
4009
3607
3219
2887
2599
2332
2101
1895
1711
1577
1471
1397
1368
1356
1381
1421
1477
1547
1613
1674
1725
1765
1801
1807
1803
1789
1756
1715
1671
1611
1553
1493
1437
1387
1339
1302
1253
1209
1185
1169
1161
1157
1178
1191
1200
1210
1223
1227
1237
1231
1240
1253
1261
1275
1289
1297
1317
1367
1449
1590
1773
2011
2301
2633
3000
3415
3865
4095
4095
4095
4095
4095
4095
4095
3851
3439
3077
2746
2467
2207
1972
1769
1605
1479
1397
1342
1326
1343
1391
1447
1517
1589
1661
1736
1791
1831
1865
1869
1855
1831
1789
1736
1677
1608
1529
1458
1397
1337
1276
1235
1205
1177
1167
1148
1144
1145
1147
1160
1179
1191
1204
1224
1239
1244
1253
1251
1257
1257
1253
1252
1245
1245
1254
1273
1326
1419
1567
1767
2011
2309
2647
3016
3438
3894
4095
4095
4095
4095
4095
4095
4095
3739
3349
2987
2680
2391
2133
1896
1701
1529
1400
1322
1269
1251
1277
1331
1405
1503
1593
1677
1753
1819
1865
1891
1894
1873
1835
1799
1735
1677
1609
1547
1469
1405
1356
1301
1261
1229
1192
1178
1164
1176
1179
1189
1197
1207
1237
1245
1263
1269
1290
1298
1303
1312
1311
1311
1324
1321
1323
1331
1358
1401
1499
1641
1833
2086
2383
2708
3068
3493
3937
4095
4095
4095
4095
4095
4095
4068
3647
3246
2903
2588
2291
2025
1790
1595
1437
1323
1252
1223
1228
1270
1335
1423
1519
1613
1711
1790
1860
1902
1935
1946
1935
1908
1863
1798
1735
1661
1593
1517
1449
1389
1333
1287
1248
1222
1195
1177
1172
1166
1166
1171
1180
1191
1214
1229
1252
1263
1279
1288
1301
1317
1326
1331
1333
1337
1343
1366
1407
1503
1641
1848
2109
2421
2779
3167
