488
370
308
289
291
309
336
364
396
420
443
462
477
486
484
484
485
483
483
479
473
467
458
453
451
451
449
446
450
449
448
446
448
454
458
460
459
458
459
457
458
458
454
451
446
443
443
442
454
462
480
506
535
576
618
660
706
735
765
775
777
770
750
725
694
663
632
599
573
546
524
507
495
486
479
472
471
468
469
472
478
484
485
495
499
503
507
509
514
513
513
511
504
499
490
480
476
470
465
459
454
452
443
438
436
432
431
428
427
425
422
421
424
430
435
438
443
443
443
443
442
443
441
443
444
442
443
440
444
445
446
446
446
448
451
457
476
496
522
556
592
635
675
712
742
766
777
772
760
739
710
678
646
615
587
557
537
518
501
488
481
480
475
475
478
476
482
486
492
501
506
514
521
524
526
522
523
520
510
499
485
474
459
452
450
444
444
441
438
439
434
428
431
434
440
438
441
442
440
441
441
445
448
447
450
450
452
451
452
455
451
449
451
445
441
439
441
442
445
459
476
497
526
558
602
642
683
719
745
765
769
766
759
739
714
680
648
616
584
558
536
520
504
490
481
472
465
468
469
476
481
483
492
498
506
510
519
530
536
542
541
535
530
516
507
495
483
476
464
459
452
443
447
449
450
446
442
447
445
445
450
448
452
454
455
457
456
458
459
461
461
458
458
454
450
448
449
456
465
480
501
526
567
607
650
688
721
748
763
768
760
740
722
696
665
636
601
570
538
510
490
473
463
459
455
456
455
459
466
472
483
490
500
508
511
518
523
528
529
526
523
512
500
485
474
465
457
454
447
441
436
429
434
438
438
441
441
441
440
440
444
445
448
451
452
457
456
455
460
459
463
463
463
462
460
461
464
474
489
508
538
571
612
658
702
745
776
795
801
792
777
751
721
689
650
616
583
552
527
500
483
469
464
462
458
461
465
468
478
483
494
503
511
521
526
533
541
543
543
535
529
518
502
490
475
467
458
448
443
436
432
429
429
434
434
438
442
444
447
447
452
453
454
458
457
460
459
457
463
465
466
467
465
467
467
474
489
506
535
573
613
659
702
742
777
804
818
817
809
787
760
726
688
656
617
582
552
524
502
482
469
465
459
459
460
463
469
473
487
496
505
516
521
527
533
534
538
532
527
519
505
495
478
464
459
450
445
440
439
439
434
434
434
438
442
441
444
442
442
442
443
449
452
455
457
455
457
457
457
460
454
452
449
448
445
443
451
459
475
501
529
575
626
678
733
783
823
848
863
864
846
823
791
755
719
678
640
604
574
554
534
521
507
495
490
484
481
479
481
486
493
501
508
515
526
532
543
548
548
545
539
531
516
501
490
475
463
453
447
441
432
427
427
427
427
422
421
421
416
420
420
423
428
430
435
438
439
442
443
448
445
445
447
444
446
444
448
449
448
452
452
453
456
453
459
464
473
491
513
548
592
646
709
766
824
866
897
915
914
901
879
850
814
772
735
695
654
620
593
572
554
538
526
512
504
498
493
491
489
493
495
497
504
506
513
519
521
524
522
517
508
493
485
473
465
458
449
445
433
427
427
422
420
416
418
419
418
422
424
427
435
435
442
441
441
443
442
446
444
443
444
440
441
439
440
442
442
441
437
434
434
430
430
425
422
424
418
422
431
445
471
503
548
601
660
723
772
814
841
852
848
826
801
763
717
675
633
596
562
531
511
492
477
468
465
468
466
469
470
465
469
470
476
485
485
490
493
496
496
494
495
490
485
477
472
469
460
452
453
444
441
434
429
427
420
419
419
418
419
420
423
423
422
424
427
432
430
430
432
431
434
432
433
435
434
434
434
434
437
433
432
431
429
427
424
420
413
410
413
409
408
411
418
433
453
486
529
580
637
698
747
787
809
822
818
804
779
746
710
666
621
579
544
517
492
471
460
449
446
440
442
447
451
458
463
471
481
489
502
507
513
518
516
517
514
509
506
497
490
479
468
459
443
433
427
423
424
419
420
418
416
419
420
422
423
424
429
430
431
433
438
442
441
443
444
444
445
442
444
445
445
444
440
440
440
436
443
441
441
441
440
444
446
457
480
505
542
587
640
694
741
785
820
839
848
840
819
789
750
707
664
623
581
541
513
487
468
456
455
453
451
454
458
463
470
475
489
500
511
521
526
534
539
537
538
529
524
513
499
486
466
458
450
440
436
430
428
427
422
424
427
432
435
437
441
438
439
440
442
446
443
446
448
446
446
441
443
449
447
450
449
451
448
442
442
438
437
438
435
437
437
441
451
461
481
507
543
587
633
686
735
772
802
812
814
803
783
757
729
694
653
612
575
541
511
485
467
461
451
447
448
447
452
454
466
477
488
499
507
517
522
522
527
527
525
519
511
502
487
476
469
460
452
444
437
435
426
424
420
419
424
425
428
425
425
424
428
432
431
433
437
436
438
439
442
443
441
444
441
439
441
439
442
442
437
439
436
437
430
429
433
437
448
462
484
514
548
590
638
685
726
755
778
784
776
762
738
711
677
642
608
573
543
513
492
477
461
454
449
444
442
441
449
457
465
476
487
501
507
509
516
519
524
523
518
514
503
494
487
476
469
458
450
442
431
429
428
429
428
425
431
430
428
429
429
435
436
438
440
439
442
437
443
447
446
451
448
446
444
441
443
443
440
441
436
438
434
430
435
436
440
444
451
468
482
507
542
588
638
685
732
772
797
814
816
813
797
771
743
704
665
629
597
574
543
523
507
489
480
468
474
478
477
481
483
489
494
495
505
508
512
519
521
523
517
512
512
504
500
490
482
476
464
457
452
444
439
433
432
428
425
426
426
431
432
434
437
437
440
439
441
444
442
448
449
450
452
451
456
457
456
459
457
456
452
447
449
448
448
449
447
446
441
440
440
439
444
440
439
444
448
455
471
494
526
565
618
671
722
772
813
846
859
861
851
826
795
755
716
678
637
603
569
541
517
497
493
486
480
479
480
482
482
484
491
497
509
517
525
531
531
533
533
531
530
521
513
502
487
475
463
459
450
441
437
431
428
425
426
428
425
429
431
431
434
432
436
439
439
441
438
442
442
440
449
451
455
457
453
454
448
447
450
445
444
438
437
436
433
432
433
436
437
439
442
438
438
437
437
440
435
435
438
444
454
469
501
539
590
648
706
765
814
848
875
882
874
857
824
786
741
693
651
608
572
537
511
494
476
466
465
466
471
473
481
485
490
497
509
521
529
537
547
548
549
542
536
531
519
511
497
486
475
459
455
451
444
442
438
436
434
429
434
433
436
437
437
439
438
438
445
444
448
445
448
449
446
450
450
454
455
452
456
458
453
452
449
452
451
448
448
445
447
443
439
437
435
436
433
431
431
429
436
436
440
445
456
477
503
539
592
645
706
762
809
848
869
878
876
857
828
786
743
694
642
595
554
518
492
469
460
450
449
449
454
464
472
484
496
506
518
527
543
554
560
567
569
566
560
547
536
524
511
494
476
466
455
447
441
435
436
434
434
433
431
434
439
445
450
450
455
455
454
456
459
461
459
461
463
459
458
458
460
460
459
461
459
455
454
447
447
447
446
449
446
448
445
443
446
443
445
444
443
448
446
457
473
492
525
566
620
675
733
788
832
865
883
880
868
839
804
760
711
669
621
577
540
505
481
460
453
453
454
459
463
469
476
481
493
502
513
526
536
548
554
555
558
554
550
539
527
514
492
477
464
455
448
438
436
435
429
429
428
432
434
435
440
438
439
440
442
445
443
447
447
449
448
444
450
449
447
447
447
448
448
444
446
444
445
446
444
443
442
441
443
444
447
445
443
443
441
445
456
474
501
533
583
635
692
746
792
834
852
860
853
830
797
758
716
669
619
578
538
503
477
457
450
442
439
444
444
450
456
467
481
489
504
514
521
532
540
543
545
548
548
536
524
510
493
478
459
450
441
433
431
423
419
416
418
424
425
427
430
429
431
432
436
440
442
446
445
445
445
444
449
449
451
455
453
453
447
444
444
443
449
445
445
445
441
440
439
440
442
441
448
458
474
501
535
584
637
690
744
789
827
845
853
851
830
804
770
734
690
643
604
566
535
510
491
475
463
459
462
463
468
471
477
486
489
500
511
519
528
536
544
545
542
536
528
521
512
499
488
472
457
452
445
440
432
429
431
429
428
425
431
437
437
444
446
449
451
450
457
462
460
461
461
460
459
457
461
458
460
459
456
454
448
449
447
444
443
439
442
441
440
444
456
477
504
537
586
637
693
744
792
833
854
863
856
837
812
775
738
697
655
617
577
550
524
502
491
480
473
470
470
475
475
479
489
495
505
511
521
529
534
542
543
543
541
532
526
511
496
481
466
461
452
447
443
437
435
432
433
434
433
437
438
439
442
440
448
452
457
464
463
466
464
461
464
461
464
462
458
459
455
453
452
451
451
448
447
445
440
443
446
460
480
507
546
594
646
698
748
792
819
836
839
826
805
772
744
703
659
625
587
555
530
505
492
478
468
465
463
465
462
465
473
478
489
495
505
514
516
521
526
532
533
525
519
505
488
473
462
457
445
438
432
423
420
419
424
431
435
440
439
439
440
436
441
442
445
449
451
454
452
449
456
454
456
456
454
453
446
442
441
441
446
450
465
489
517
564
618
676
736
785
826
852
861
859
844
820
782
744
703
659
624
589
566
549
532
521
509
499
491
479
477
470
467
470
467
471
474
477
486
486
494
492
493
494
485
481
476
470
465
457
452
441
429
424
420
420
417
417
422
419
419
421
421
428
431
432
436
434
437
436
442
442
443
445
442
443
444
438
441
438
439
436
432
432
429
426
432
431
434
432
432
432
429
431
431
432
434
439
452
472
501
537
592
656
721
781
831
869
891
893
886
871
837
802
759
713
669
626
597
571
549
535
521
513
501
490
487
479
475
470
468
470
465
472
480
484
490
491
496
495
493
490
481
477
470
461
455
445
435
427
424
426
423
423
423
419
420
417
422
425
426
428
429
430
431
430
436
438
441
444
441
441
435
435
439
437
438
433
432
432
426
424
423
425
428
424
426
425
424
427
429
432
431
432
434
431
432
429
431
434
434
436
436
436
434
431
431
436
441
454
473
508
545
596
659
719
776
822
851
867
862
849
823
787
751
707
667
628
590
562
543
530
518
508
503
496
491
487
483
483
478
478
482
479
484
484
493
503
506
508
505
504
496
487
484
472
462
457
450
446
439
432
428
426
428
426
427
428
424
426
430
431
435
434
437
440
439
440
441
443
444
442
443
439
439
441
441
439
436
440
436
434
435
431
433
436
435
437
435
433
431
428
433
434
434
435
433
435
432
431
433
433
434
432
435
436
434
441
446
457
479
503
538
581
632
683
732
772
796
811
810
795
772
739
707
674
634
600
569
546
525
507
503
501
500
500
498
500
496
498
502
504
511
513
518
524
525
530
532
531
531
524
520
509
495
488
477
469
464
461
459
451
444
439
441
443
443
446
447
445
447
446
452
454
454
459
458
458
454
451
454
453
453
453
453
458
453
450
450
446
448
443
441
441
439
440
440
441
443
440
442
440
437
438
438
442
439
437
439
436
435
432
432
435
436
439
445
452
466
487
520
555
601
648
695
740
769
787
800
794
782
757
726
692
648
610
577
546
522
499
485
475
469
471
474
478
484
487
493
495
499
503
510
517
521
527
535
535
537
530
527
523
512
504
491
479
469
461
462
454
448
444
439
439
436
435
440
441
445
446
448
452
447
448
449
451
453
452
455
453
450
453
453
458
458
454
457
453
451
447
448
450
443
442
441
436
439
436
443
446
447
450
445
444
439
435
439
441
445
452
461
481
502
529
575
623
674
714
751
779
792
800
790
773
751
717
683
644
607
574
545
523
501
488
480
472
467
469
477
484
486
497
505
511
520
522
533
542
548
554
554
556
550
543
539
528
518
504
490
475
460
452
452
452
452
447
448
449
447
449
450
451
450
451
455
453
457
457
462
469
468
468
468
463
462
459
466
466
462
459
456
452
451
448
454
452
454
452
451
452
445
443
447
443
445
445
448
454
461
481
506
538
581
622
670
713
750
782
803
814
810
796
775
747
717
678
643
609
578
555
532
515
503
491
489
486
483
487
490
498
502
508
523
534
548
558
565
572
571
568
564
555
547
530
519
506
491
479
469
465
460
452
450
446
444
442
440
443
444
447
451
450
451
450
454
459
460
462
462
462
462
457
464
461
461
461
460
460
457
456
458
457
459
457
454
455
450
453
455
460
472
489
517
551
592
638
690
735
773
799
814
810
800
780
756
730
693
659
621
584
556
528
513
502
490
480
472
470
469
468
475
477
488
493
497
508
510
512
520
523
526
525
525
520
506
500
488
478
466
456
450
439
433
428
426
424
421
420
422
421
426
425
428
430
427
432
434
434
437
439
445
447
447
447
443
441
435
433
434
430
431
428
427
433
433
440
452
471
495
520
553
591
630
667
698
727
745
753
750
734
710
680
654
623
588
558
531
503
483
462
456
450
445
442
439
442
445
451
465
476
491
500
507
518
521
528
538
533
533
525
515
523
524
521
513
495
476
457
445
434
415
406
418
427
432
434
439
440
437
439
445
448
449
452
451
447
448
443
440
443
445
444
442
456
474
493
525
552
587
628
668
704
727
752
763
755
752
731
706
679
646
608
574
549
523
502
489
471
462
457
454
450
449
453
457
461
472
474
487
497
500
496
501
504
504
505
513
507
502
495
488
476
465
455
447
440
439
429
425
423
417
415
419
422
424
426
432
431
432
436
441
443
445
440
438
440
444
441
448
456
458
457
456
452
447
438
444
441
443
448
447
451
466
481
735
772
802
812
814
803
783
757
729
694
653
612
575
541
511
485
467
461
451
447
448
447
452
454
466
477
488
499
507
517
522
522
527
527
525
519
511
502
487
476
469
460
452
444
437
435
426
424
420
419
424
425
428
425
425
424
428
432
431
433
437
436
438
439
442
443
441
444
441
439
441
439
442
442
437
439
436
437
430
429
433
437
448
462
484
514
548
590
638
685
726
755
778
784
776
762
738
711
677
642
608
573
543
513
492
477
461
454
449
444
442
441
449
457
465
476
487
501
507
509
516
519
524
523
518
514
503
494
487
476
469
458
450
442
431
429
428
429
428
425
431
430
428
429
429
435
436
438
440
439
442
437
443
447
446
451
448
446
444
441
443
443
440
441
436
438
434
430
435
436
440
444
451
468
482
507
542
588
638
685
732
772
797
814
816
813
797
771
743
704
665
629
597
574
543
523
507
489
480
468
474
478
477
481
483
489
494
495
505
508
512
519
521
523
517
512
512
504
500
490
482
476
464
457
452
444
439
433
432
428
425
426
426
431
432
434
437
437
440
439
441
444
442
448
449
450
452
451
456
457
456
459
457
456
452
447
449
448
448
449
447
446
441
440
440
439
444
440
439
444
448
455
471
494
526
565
618
671
722
772
813
846
859
861
851
826
795
755
716
678
637
603
569
541
517
497
493
486
480
479
480
482
482
484
491
497
509
517
525
531
531
533
533
531
530
521
513
502
487
475
463
459
450
441
437
431
428
425
426
428
425
429
431
431
434
432
436
439
439
441
438
442
442
440
449
451
455
457
453
454
448
447
450
445
444
438
437
436
433
432
433
436
437
439
442
438
438
437
437
440
435
435
438
444
454
469
501
539
590
648
706
765
814
848
875
882
874
857
824
786
741
693
651
608
572
537
511
494
476
466
465
466
471
473
481
485
490
497
509
521
529
537
547
548
549
542
536
531
519
511
497
486
475
459
455
451
444
442
438
436
434
429
434
433
436
437
437
439
438
438
445
444
448
445
448
449
446
450
450
454
455
452
456
458
453
452
449
452
451
448
448
445
447
443
439
437
435
436
433
431
431
429
436
436
440
445
456
477
503
539
592
645
706
762
809
848
869
878
876
857
828
786
743
694
642
595
554
518
492
469
460
450
449
449
454
464
472
484
496
506
518
527
543
554
560
567
569
566
560
547
536
524
511
494
476
466
455
447
441
435
436
434
434
433
431
434
439
445
450
450
455
455
454
456
459
461
459
461
463
459
458
458
460
460
459
461
459
455
454
447
447
447
446
449
446
448
445
443
446
443
445
444
443
448
446
457
473
492
525
566
620
675
733
788
832
865
883
880
868
839
804
760
711
669
621
577
540
505
481
460
453
453
454
459
463
469
476
481
493
502
513
526
536
548
554
555
558
554
550
539
527
514
492
477
464
455
448
438
436
435
429
429
428
432
434
435
440
438
439
440
442
445
443
447
447
449
448
444
450
449
447
447
447
448
448
444
446
444
445
446
444
443
442
441
443
444
447
445
443
443
441
445
456
474
501
533
583
635
692
746
792
834
852
860
853
830
797
758
716
669
619
578
538
503
477
457
450
442
439
444
444
450
456
467
481
489
504
514
521
532
540
543
545
548
548
536
524
510
493
478
459
450
441
433
431
423
419
416
418
424
425
427
430
429
431
432
436
440
442
446
445
445
445
444
449
449
451
455
453
453
447
444
444
443
449
445
445
445
441
440
439
440
442
441
448
458
474
501
535
584
637
690
744
789
827
845
853
851
830
804
770
734
690
643
604
566
535
510
491
475
463
459
462
463
468
471
477
486
489
500
511
519
528
536
544
545
542
536
528
521
512
499
488
472
457
452
445
440
432
429
431
429
428
425
431
437
437
444
446
449
451
450
457
462
460
461
461
460
459
457
461
458
460
459
456
454
448
449
447
444
443
439
442
441
440
444
456
477
504
537
586
637
693
744
792
833
854
863
856
837
812
775
738
697
655
617
577
550
524
502
491
480
473
470
470
475
475
479
489
495
505
511
521
529
534
542
543
543
541
532
526
511
496
481
466
461
452
447
443
437
435
432
433
434
433
437
438
439
442
440
448
452
457
464
463
466
464
461
464
461
464
462
458
459
455
453
452
451
451
448
447
445
440
443
446
460
480
507
546
594
646
698
748
792
819
836
839
826
805
772
744
703
659
625
587
555
530
505
492
478
468
465
463
465
462
465
473
478
489
495
505
514
516
521
526
532
533
525
519
505
488
473
462
457
445
438
432
423
420
419
424
431
435
440
439
439
440
436
441
442
445
449
451
454
452
449
456
454
456
456
454
453
446
442
441
441
446
450
465
489
517
564
618
676
736
785
826
852
861
859
844
820
782
744
703
659
624
589
566
549
532
521
509
499
491
479
477
470
467
470
467
471
474
477
486
486
494
492
493
494
485
481
476
470
465
457
452
441
429
424
420
420
417
417
422
419
419
421
421
428
431
432
436
434
437
436
442
442
443
445
442
443
444
438
441
438
439
436
432
432
429
426
432
431
434
432
432
432
429
431
431
432
434
439
452
472
501
537
592
656
721
781
831
869
891
893
886
871
837
802
759
713
669
626
597
571
549
535
521
513
501
490
487
479
475
470
468
470
465
472
480
484
490
491
496
495
493
490
481
477
470
461
455
445
435
427
424
426
423
423
423
419
420
417
422
425
426
428
429
430
431
430
436
438
441
444
441
441
435
435
439
437
438
433
432
432
426
424
423
425
428
424
426
425
424
427
429
432
431
432
434
431
432
429
431
434
434
436
436
436
434
431
431
436
441
454
473
508
545
596
659
719
776
822
851
867
862
849
823
787
751
707
667
628
590
562
543
530
518
508
503
496
491
487
483
483
478
478
482
479
484
484
493
503
506
508
505
504
496
487
484
472
462
457
450
446
439
432
428
426
428
426
427
428
424
426
430
431
435
434
437
440
439
440
441
443
444
442
443
439
439
441
441
439
436
440
436
434
435
431
433
436
435
437
435
433
431
428
433
434
434
435
433
435
432
431
433
433
434
432
435
436
434
441
446
457
479
503
538
581
632
683
732
772
796
811
810
795
772
739
707
674
634
600
569
546
525
507
503
501
500
500
498
500
496
498
502
504
511
513
518
524
525
530
532
531
531
524
520
509
495
488
477
469
464
461
459
451
444
439
441
443
443
446
447
445
447
446
452
454
454
459
458
458
454
451
454
453
453
453
453
458
453
450
450
446
448
443
441
441
439
440
440
441
443
440
442
440
437
438
438
442
439
437
439
436
435
432
432
435
436
439
445
452
466
487
520
555
601
648
695
740
769
787
800
794
782
757
726
692
648
610
577
546
522
499
485
475
469
471
474
478
484
487
493
495
499
503
510
517
521
527
535
535
537
530
527
523
512
504
491
479
469
461
462
454
448
444
439
439
436
435
440
441
445
446
448
452
447
448
449
451
453
452
455
453
450
453
453
458
458
454
457
453
451
447
448
450
443
442
441
436
439
436
443
446
447
450
445
444
439
435
439
441
445
452
461
481
502
529
575
623
674
714
751
779
792
800
790
773
751
717
683
644
607
574
545
523
501
488
480
472
467
469
477
484
486
497
505
511
520
522
533
542
548
554
554
556
550
543
539
528
518
504
490
475
460
452
452
452
452
447
448
449
447
449
450
451
450
451
455
453
457
457
462
469
468
468
468
463
462
459
466
466
462
459
456
452
451
448
454
452
454
452
451
452
445
443
447
443
445
445
448
454
461
481
506
538
581
622
670
713
750
782
803
814
810
796
775
747
717
678
643
609
578
555
532
515
503
491
489
486
483
487
490
498
502
508
523
534
548
558
565
572
571
568
564
555
547
530
519
506
491
479
469
465
460
452
450
446
444
442
440
443
444
447
451
450
451
450
454
459
460
462
462
462
462
457
464
461
461
461
460
460
457
456
458
457
459
457
454
455
450
453
455
460
472
489
517
551
592
638
690
735
773
799
814
810
800
780
756
730
693
659
621
584
556
528
513
502
490
480
472
470
469
468
475
477
488
493
497
508
510
512
520
523
526
525
525
520
506
500
488
478
466
456
450
439
433
428
426
424
421
420
422
421
426
425
428
430
427
432
434
434
437
439
445
447
447
447
443
441
435
433
434
430
431
428
427
433
433
440
452
471
495
520
553
591
630
667
698
727
745
753
750
734
710
680
654
623
588
558
531
503
483
462
456
450
445
442
439
442
445
451
465
476
491
500
507
518
521
528
538
533
533
525
515
523
524
521
513
495
476
457
445
434
415
406
418
427
432
434
439
440
437
439
445
448
449
452
451
447
448
443
440
443
445
444
442
456
474
493
525
552
587
628
668
704
727
752
763
755
752
731
706
679
646
608
574
549
523
502
489
471
462
457
454
450
449
453
457
461
472
474
487
497
500
496
501
504
504
505
513
507
502
495
488
476
465
455
447
440
439
429
425
423
417
415
419
422
424
426
432
431
432
436
441
443
445
440
438
440
444
441
448
456
458
457
456
452
447
438
444
441
443
448
447
451
466
481
511
544
588
631
672
717
758
790
815
827
829
815
796
761
727
694
657
624
585
547
522
503
492
489
486
490
490
499
502
496
509
515
531
538
542
544
541
540
539
529
523
515
508
487
471
464
448
445
452
448
447
447
444
435
431
432
431
432
437
438
434
440
437
436
435
440
439
438
441
438
434
440
444
441
439
436
430
425
426
425
429
429
432
432
431
430
424
419
419
415
421
430
429
431
431
436
445
455
477
500
525
564
603
637
676
697
702
695
701
688
672
663
649
632
608
584
561
540
524
503
494
496
489
482
476
473
465
466
470
461
459
469
465
459
460
462
466
463
464
450
445
450
439
442
447
445
441
439
438
429
424
426
419
418
418
416
411
408
409
404
405
414
410
408
413
414
409
406
411
410
407
407
402
402
402
404
410
413
418
413
415
421
413
411
415
415
414
403
394
396
398
412
409
410
412
411
406
407
398
393
397
406
409
417
429
445
462
477
498
514
534
558
562
563
563
552
543
532
518
501
488
482
466
459
459
455
453
457
459
455
450
453
452
452
450
441
441
447
446
451
459
470
466
465
467
461
458
460
460
456
454
459
452
449
448
443
442
445
441
437
438
442
435
434
440
436
436
435
429
429
429
436
443
445
446
443
444
446
446
442
447
454
445
444
448
441
439
438
431
434
438
443
441
439
440
435
439
445
436
431
431
429
424
427
428
432
445
453
459
464
471
480
486
496
505
505
508
510
501
496
498
495
491
485
481
474
468
466
464
461
456
459
460
462
460
462
469
478
475
477
482
481
473
466
463
466
471
475
474
471
469
467
467
469
467
462
458
458
453
451
457
452
444
445
446
446
444
450
455
461
470
467
470
470
467
460
464
463
459
461
464
461
460
458
458
455
453
450
448
450
455
449
457
462
456
453
455
456
452
453
464
464
468
471
468
463
464
454
455
458
465
465
470
478
478
482
489
492
491
494
498
494
492
490
486
482
479
474
469
463
463
463
478
485
483
483
486
485
481
480
481
481
482
485
480
479
480
477
477
478
476
471
474
476
473
471
479
480
476
472
468
463
462
470
473
475
482
478
477
476
475
468
472
477
473
472
475
472
467
468
469
464
467
473
470
469
471
465
469
467
465
459
460
463
460
465
478
478
481
483
481
475
478
478
470
469
477
476
473
475
474
472
478
480
478
477
484
481
481
488
496
495
502
497
492
488
487
484
493
499
497
491
492
491
487
489
494
490
490
493
489
484
483
482
480
477
484
478
481
485
484
481
490
490
483
479
482
475
475
485
489
490
497
500
498
495
494
487
487
493
487
485
489
487
483
482
480
478
477
481
475
471
476
471
472
472
474
470
465
475
474
478
494
496
495
493
494
491
487
488
482
484
488
486
480
467
472
477
482
486
487
488
493
492
491
493
498
494
491
495
492
495
504
506
514
521
525
523
520
518
513
506
511
508
499
500
500
496
495
498
495
496
501
496
497
499
497
493
497
502
493
492
498
494
493
502
511
514
517
518
510
509
511
509
509
510
505
499
499
500
490
489
495
492
493
495
495
491
491
493
495
493
492
488
488
488
484
482
496
507
507
510
513
509
504
503
500
492
497
501
497
498
499
495
493
496
493
486
489
494
494
503
514
525
530
543
547
554
560
568
573
575
579
576
571
560
545
533
537
539
536
532
532
527
532
541
543
539
545
545
542
541
540
538
539
541
535
535
541
539
538
541
548
551
553
554
546
542
540
535
534
533
532
525
520
518
514
511
517
511
511
514
514
513
513
513
514
511
513
503
503
505
504
506
515
524
525
526
524
512
514
515
521
524
518
513
516
524
538
539
551
568
585
596
605
619
631
641
652
649
645
635
621
606
588
580
567
566
565
556
551
553
553
552
558
564
568
570
568
561
559
560
554
552
556
557
557
559
565
563
573
573
566
560
558
554
549
550
557
551
547
544
537
533
528
522
520
517
517
512
512
514
512
513
518
515
505
506
502
498
497
500
500
501
501
505
513
526
534
549
573
602
613
632
646
652
654
657
662
649
637
638
625
619
614
601
592
584
573
558
547
544
533
530
533
534
525
521
521
516
520
537
551
564
578
582
580
575
569
562
561
557
552
548
544
530
520
518
516
519
520
521
514
508
509
502
504
506
501
494
496
498
488
488
495
494
498
502
508
509
512
513
511
519
529
537
553
570
583
598
618
635
647
662
674
673
670
668
661
651
636
617
599
583
573
559
555
556
550
545
543
540
535
532
538
537
538
541
541
542
537
544
550
556
567
567
564
563
555
546
424
431
435
440
439
439
440
436
441
442
445
449
451
454
452
449
456
454
456
456
454
453
446
442
441
441
446
450
465
489
517
564
618
676
736
785
826
852
861
859
844
820
782
744
703
659
624
589
566
549
532
521
509
499
491
479
477
470
467
470
467
471
474
477
486
486
494
492
493
494
485
481
476
470
465
457
452
441
429
424
420
420
417
417
422
419
419
421
421
428
431
432
436
434
437
436
442
442
443
445
442
443
444
438
441
438
439
436
432
432
429
426
432
431
434
432
432
432
429
431
431
432
434
439
452
472
501
537
592
656
721
781
831
869
891
893
886
871
837
802
759
713
669
626
597
571
549
535
521
513
501
490
487
479
475
470
468
470
465
472
480
484
490
491
496
495
493
490
481
477
470
461
455
445
435
427
424
426
423
423
423
419
420
417
422
425
426
428
429
430
431
430
436
438
441
444
441
441
435
435
439
437
438
433
432
432
426
424
423
425
428
424
426
425
424
427
429
432
431
432
434
431
432
429
431
434
434
436
436
436
434
431
431
436
441
454
473
508
545
596
659
719
776
822
851
867
862
849
823
787
751
707
667
628
590
562
543
530
518
508
503
496
491
487
483
483
478
478
482
479
484
484
493
503
506
508
505
504
496
487
484
472
462
457
450
446
439
432
428
426
428
426
427
428
424
426
430
431
435
434
437
440
439
440
441
443
444
442
443
439
439
441
441
439
436
440
436
434
435
431
433
436
435
437
435
433
431
428
433
434
434
435
433
435
432
431
433
433
434
432
435
436
434
441
446
457
479
503
538
581
632
683
732
772
796
811
810
795
772
739
707
674
634
600
569
546
525
507
503
501
500
500
498
500
496
498
502
504
511
513
518
524
525
530
532
531
531
524
520
509
495
488
477
469
464
461
459
451
444
439
441
443
443
446
447
445
447
446
452
454
454
459
458
458
454
451
454
453
453
453
453
458
453
450
450
446
448
443
441
441
439
440
440
441
443
440
442
440
437
438
438
442
439
437
439
436
435
432
432
435
436
439
445
452
466
487
520
555
601
648
695
740
769
787
800
794
782
757
726
692
648
610
577
546
522
499
485
475
469
471
474
478
484
487
493
495
499
503
510
517
521
527
535
535
537
530
527
523
512
504
491
479
469
461
462
454
448
444
439
439
436
435
440
441
445
446
448
452
447
448
449
451
453
452
455
453
450
453
453
458
458
454
457
453
451
447
448
450
443
442
441
436
439
436
443
446
447
450
445
444
439
435
439
441
445
452
461
481
502
529
575
623
674
714
751
779
792
800
790
773
751
717
683
644
607
574
545
523
501
488
480
472
467
469
477
484
486
497
505
511
520
522
533
542
548
554
554
556
550
543
539
528
518
504
490
475
460
452
452
452
452
447
448
449
447
449
450
451
450
451
455
453
457
457
462
469
468
468
468
463
462
459
466
466
462
459
456
452
451
448
454
452
454
452
451
452
445
443
447
443
445
445
448
454
461
481
506
538
581
622
670
713
750
782
803
814
810
796
775
747
717
678
643
609
578
555
532
515
503
491
489
486
483
487
490
498
502
508
523
534
548
558
565
572
571
568
564
555
547
530
519
506
491
479
469
465
460
452
450
446
444
442
440
443
444
447
451
450
451
450
454
459
460
462
462
462
462
457
464
461
461
461
460
460
457
456
458
457
459
457
454
455
450
453
455
460
472
489
517
551
592
638
690
735
773
799
814
810
800
780
756
730
693
659
621
584
556
528
513
502
490
480
472
470
469
468
475
477
488
493
497
508
510
512
520
523
526
525
525
520
506
500
488
478
466
456
450
439
433
428
426
424
421
420
422
421
426
425
428
430
427
432
434
434
437
439
445
447
447
447
443
441
435
433
434
430
431
428
427
433
433
440
452
471
495
520
553
591
630
667
698
727
745
753
750
734
710
680
654
623
588
558
531
503
483
462
456
450
445
442
439
442
445
451
465
476
491
500
507
518
521
528
538
533
533
525
515
523
524
521
513
495
476
457
445
434
415
406
418
427
432
434
439
440
437
439
445
448
449
452
451
447
448
443
440
443
445
444
442
456
474
493
525
552
587
628
668
704
727
752
763
755
752
731
706
679
646
608
574
549
523
502
489
471
462
457
454
450
449
453
457
461
472
474
487
497
500
496
501
504
504
505
513
507
502
495
488
476
465
455
447
440
439
429
425
423
417
415
419
422
424
426
432
431
432
436
441
443
445
440
438
440
444
441
448
456
458
457
456
452
447
438
444
441
443
448
447
451
466
481
511
544
588
631
672
717
758
790
815
827
829
815
796
761
727
694
657
624
585
547
522
503
492
489
486
490
490
499
502
496
509
515
531
538
542
544
541
540
539
529
523
515
508
487
471
464
448
445
452
448
447
447
444
435
431
432
431
432
437
438
434
440
437
436
435
440
439
438
441
438
434
440
444
441
439
436
430
425
426
425
429
429
432
432
431
430
424
419
419
415
421
430
429
431
431
436
445
455
477
500
525
564
603
637
676
697
702
695
701
688
672
663
649
632
608
584
561
540
524
503
494
496
489
482
476
473
465
466
470
461
459
469
465
459
460
462
466
463
464
450
445
450
439
442
447
445
441
439
438
429
424
426
419
418
418
416
411
408
409
404
405
414
410
408
413
414
409
406
411
410
407
407
402
402
402
404
410
413
418
413
415
421
413
411
415
415
414
403
394
396
398
412
409
410
412
411
406
407
398
393
397
406
409
417
429
445
462
477
498
514
534
558
562
563
563
552
543
532
518
501
488
482
466
459
459
455
453
457
459
455
450
453
452
452
450
441
441
447
446
451
459
470
466
465
467
461
458
460
460
456
454
459
452
449
448
443
442
445
441
437
438
442
435
434
440
436
436
435
429
429
429
436
443
445
446
443
444
446
446
442
447
454
445
444
448
441
439
438
431
434
438
443
441
439
440
435
439
445
436
431
431
429
424
427
428
432
445
453
459
464
471
480
486
496
505
505
508
510
501
496
498
495
491
485
481
474
468
466
464
461
456
459
460
462
460
462
469
478
475
477
482
481
473
466
463
466
471
475
474
471
469
467
467
469
467
462
458
458
453
451
457
452
444
445
446
446
444
450
455
461
470
467
470
470
467
460
464
463
459
461
464
461
460
458
458
455
453
450
448
450
455
449
457
462
456
453
455
456
452
453
464
464
468
471
468
463
464
454
455
458
465
465
470
478
478
482
489
492
491
494
498
494
492
490
486
482
479
474
469
463
463
463
478
485
483
483
486
485
481
480
481
481
482
485
480
479
480
477
477
478
476
471
474
476
473
471
479
480
476
472
468
463
462
470
473
475
482
478
477
476
475
468
472
477
473
472
475
472
467
468
469
464
467
473
470
469
471
465
469
467
465
459
460
463
460
465
478
478
481
483
481
475
478
478
470
469
477
476
473
475
474
472
478
480
478
477
484
481
481
488
496
495
502
497
492
488
487
484
493
499
497
491
492
491
487
489
494
490
490
493
489
484
483
482
480
477
484
478
481
485
484
481
490
490
483
479
482
475
475
485
489
490
497
500
498
495
494
487
487
493
487
485
489
487
483
482
480
478
477
481
475
471
476
471
472
472
474
470
465
475
474
478
494
496
495
493
494
491
487
488
482
484
488
486
480
467
472
477
482
486
487
488
493
492
491
493
498
494
491
495
492
495
504
506
514
521
525
523
520
518
513
506
511
508
499
500
500
496
495
498
495
496
501
496
497
499
497
493
497
502
493
492
498
494
493
502
511
514
517
518
510
509
511
509
509
510
505
499
499
500
490
489
495
492
493
495
495
491
491
493
495
493
492
488
488
488
484
482
496
507
507
510
513
509
504
503
500
492
497
501
497
498
499
495
493
496
493
486
489
494
494
503
514
525
530
543
547
554
560
568
573
575
579
576
571
560
545
533
537
539
536
532
532
527
532
541
543
539
545
545
542
541
540
538
539
541
535
535
541
539
538
541
548
551
553
554
546
542
540
535
534
533
532
525
520
518
514
511
517
511
511
514
514
513
513
513
514
511
513
503
503
505
504
506
515
524
525
526
524
512
514
515
521
524
518
513
516
524
538
539
551
568
585
596
605
619
631
641
652
649
645
635
621
606
588
580
567
566
565
556
551
553
553
552
558
564
568
570
568
561
559
560
554
552
556
557
557
559
565
563
573
573
566
560
558
554
549
550
557
551
547
544
537
533
528
522
520
517
517
512
512
514
512
513
518
515
505
506
502
498
497
500
500
501
501
505
513
526
534
549
573
602
613
632
646
652
654
657
662
649
637
638
625
619
614
601
592
584
573
558
547
544
533
530
533
534
525
521
521
516
520
537
551
564
578
582
580
575
569
562
561
557
552
548
544
530
520
518
516
519
520
521
514
508
509
502
504
506
501
494
496
498
488
488
495
494
498
502
508
509
512
513
511
519
529
537
553
570
583
598
618
635
647
662
674
673
670
668
661
651
636
617
599
583
573
559
555
556
550
545
543
540
535
532
538
537
538
541
541
542
537
544
550
556
567
567
564
563
555
546
546
538
518
505
503
498
492
496
496
499
509
511
500
504
505
500
504
510
510
509
512
510
504
503
507
502
498
500
494
491
493
491
490
488
485
478
478
480
476
481
497
511
522
540
560
574
595
621
642
667
694
711
719
727
727
719
709
701
683
664
652
636
618
603
596
584
572
563
556
552
550
546
553
560
566
563
565
567
564
560
563
563
562
563
564
556
546
536
530
524
523
510
496
496
496
495
498
499
489
482
485
478
474
481
493
484
490
495
493
493
498
492
486
491
496
492
491
490
482
480
480
473
472
475
476
475
473
471
472
472
474
465
466
466
460
467
483
494
503
517
539
563
592
623
658
682
706
719
724
724
716
697
687
674
657
634
615
598
579
569
564
552
542
538
531
529
529
525
530
538
542
544
544
545
548
544
551
551
548
548
543
533
526
520
512
502
498
494
488
485
482
472
465
463
458
461
471
472
471
476
487
485
483
485
480
478
479
468
465
473
476
475
475
477
474
469
473
468
465
467
467
463
463
463
463
457
459
451
450
450
450
452
461
462
462
463
473
476
483
495
512
531
559
591
616
640
660
671
680
686
682
671
660
640
619
601
588
567
546
534
524
513
507
509
513
517
524
518
519
525
522
518
522
522
522
519
519
511
504
504
501
501
504
506
507
508
504
495
500
499
497
495
492
491
487
496
495
488
478
481
479
478
477
472
478
480
478
481
486
483
488
490
500
500
498
499
496
486
478
474
469
468
463
459
454
454
451
449
461
471
469
467
473
470
462
462
466
466
468
476
487
505
530
556
587
620
644
663
674
682
678
672
669
649
630
608
586
562
543
531
523
516
514
508
503
503
500
498
502
507
514
514
520
518
517
530
536
540
542
543
538
533
530
516
504
498
487
479
472
470
467
474
483
471
468
480
480
478
478
478
477
477
481
473
469
468
460
455
461
463
465
465
469
469
467
476
476
472
466
460
455
454
449
444
445
457
460
463
466
465
464
459
459
458
453
459
456
457
464
475
493
517
542
563
585
611
625
635
651
656
656
649
643
626
608
601
587
578
571
560
547
532
519
507
500
506
501
502
505
505
502
505
509
507
504
508
503
504
512
513
516
523
522
515
507
512
504
506
511
509
504
502
497
487
472
467
468
469
475
474
469
469
463
457
458
465
460
455
449
449
452
459
458
455
457
463
460
458
461
461
469
479
479
479
478
477
471
466
468
464
462
463
459
458
457
459
453
455
459
456
457
463
466
468
484
501
514
531
560
583
607
635
657
671
680
679
666
650
633
611
592
579
558
535
523
513
499
489
486
479
476
485
485
488
495
502
511
514
511
513
515
523
525
532
544
546
543
539
535
520
511
506
500
491
489
479
474
473
473
468
471
476
473
469
465
461
460
462
472
473
472
474
469
468
469
471
475
479
480
477
481
476
465
453
456
456
455
456
456
458
460
465
469
471
477
477
474
479
478
478
487
490
499
511
529
552
576
608
636
667
693
707
707
695
680
654
634
617
601
581
567
553
535
521
517
506
498
497
502
501
506
512
514
508
511
514
520
525
528
537
546
552
553
552
554
545
540
536
533
526
528
510
495
486
479
466
462
466
465
473
487
483
481
482
486
483
471
468
466
464
468
474
482
485
489
486
480
476
478
472
485
486
487
487
488
478
469
459
457
455
466
474
478
482
490
493
503
515
526
545
573
602
629
663
699
713
724
726
706
683
671
651
628
611
581
550
527
514
501
495
498
499
498
502
504
505
515
523
530
536
536
532
530
530
529
536
553
565
563
556
553
543
535
531
528
519
509
505
494
490
480
464
460
458
458
458
460
463
464
470
480
486
487
483
478
474
475
480
484
484
487
480
466
462
460
466
476
481
477
476
477
472
463
465
469
469
477
489
510
535
575
608
637
668
684
693
702
707
710
705
698
688
668
650
626
606
589
568
552
535
527
521
518
524
520
510
512
513
513
517
524
528
531
541
546
548
542
535
530
526
520
519
524
533
533
524
520
506
495
484
480
474
470
479
475
471
472
468
457
452
453
450
454
459
458
456
467
462
454
454
456
457
456
461
466
463
467
478
482
490
491
491
497
506
511
518
538
566
590
618
648
672
690
713
725
732
732
726
710
693
670
640
614
589
562
540
531
517
504
498
488
478
474
473
475
478
487
496
502
514
521
526
535
544
545
547
551
546
536
531
524
510
498
486
472
460
456
457
463
470
465
462
463
462
456
453
458
459
458
461
459
457
457
458
454
455
455
458
459
467
465
462
469
471
468
462
460
458
449
452
511
544
588
631
672
717
758
790
815
827
829
815
796
761
727
694
657
624
585
547
522
503
492
489
486
490
490
499
502
496
509
515
531
538
542
544
541
540
539
529
523
515
508
487
471
464
448
445
452
448
447
447
444
435
431
432
431
432
437
438
434
440
437
436
435
440
439
438
441
438
434
440
444
441
439
436
430
425
426
425
429
429
432
432
431
430
424
419
419
415
421
430
429
431
431
436
445
455
477
500
525
564
603
637
676
697
702
695
701
688
672
663
649
632
608
584
561
540
524
503
494
496
489
482
476
473
465
466
470
461
459
469
465
459
460
462
466
463
464
450
445
450
439
442
447
445
441
439
438
429
424
426
419
418
418
416
411
408
409
404
405
414
410
408
413
414
409
406
411
410
407
407
402
402
402
404
410
413
418
413
415
421
413
411
415
415
414
403
394
396
398
412
409
410
412
411
406
407
398
393
397
406
409
417
429
445
462
477
498
514
534
558
562
563
563
552
543
532
518
501
488
482
466
459
459
455
453
457
459
455
450
453
452
452
450
441
441
447
446
451
459
470
466
465
467
461
458
460
460
456
454
459
452
449
448
443
442
445
441
437
438
442
435
434
440
436
436
435
429
429
429
436
443
445
446
443
444
446
446
442
447
454
445
444
448
441
439
438
431
434
438
443
441
439
440
435
439
445
436
431
431
429
424
427
428
432
445
453
459
464
471
480
486
496
505
505
508
510
501
496
498
495
491
485
481
474
468
466
464
461
456
459
460
462
460
462
469
478
475
477
482
481
473
466
463
466
471
475
474
471
469
467
467
469
467
462
458
458
453
451
457
452
444
445
446
446
444
450
455
461
470
467
470
470
467
460
464
463
459
461
464
461
460
458
458
455
453
450
448
450
455
449
457
462
456
453
455
456
452
453
464
464
468
471
468
463
464
454
455
458
465
465
470
478
478
482
489
492
491
494
498
494
492
490
486
482
479
474
469
463
463
463
478
485
483
483
486
485
481
480
481
481
482
485
480
479
480
477
477
478
476
471
474
476
473
471
479
480
476
472
468
463
462
470
473
475
482
478
477
476
475
468
472
477
473
472
475
472
467
468
469
464
467
473
470
469
471
465
469
467
465
459
460
463
460
465
478
478
481
483
481
475
478
478
470
469
477
476
473
475
474
472
478
480
478
477
484
481
481
488
496
495
502
497
492
488
487
484
493
499
497
491
492
491
487
489
494
490
490
493
489
484
483
482
480
477
484
478
481
485
484
481
490
490
483
479
482
475
475
485
489
490
497
500
498
495
494
487
487
493
487
485
489
487
483
482
480
478
477
481
475
471
476
471
472
472
474
470
465
475
474
478
494
496
495
493
494
491
487
488
482
484
488
486
480
467
472
477
482
486
487
488
493
492
491
493
498
494
491
495
492
495
504
506
514
521
525
523
520
518
513
506
511
508
499
500
500
496
495
498
495
496
501
496
497
499
497
493
497
502
493
492
498
494
493
502
511
514
517
518
510
509
511
509
509
510
505
499
499
500
490
489
495
492
493
495
495
491
491
493
495
493
492
488
488
488
484
482
496
507
507
510
513
509
504
503
500
492
497
501
497
498
499
495
493
496
493
486
489
494
494
503
514
525
530
543
547
554
560
568
573
575
579
576
571
560
545
533
537
539
536
532
532
527
532
541
543
539
545
545
542
541
540
538
539
541
535
535
541
539
538
541
548
551
553
554
546
542
540
535
534
533
532
525
520
518
514
511
517
511
511
514
514
513
513
513
514
511
513
503
503
505
504
506
515
524
525
526
524
512
514
515
521
524
518
513
516
524
538
539
551
568
585
596
605
619
631
641
652
649
645
635
621
606
588
580
567
566
565
556
551
553
553
552
558
564
568
570
568
561
559
560
554
552
556
557
557
559
565
563
573
573
566
560
558
554
549
550
557
551
547
544
537
533
528
522
520
517
517
512
512
514
512
513
518
515
505
506
502
498
497
500
500
501
501
505
513
526
534
549
573
602
613
632
646
652
654
657
662
649
637
638
625
619
614
601
592
584
573
558
547
544
533
530
533
534
525
521
521
516
520
537
551
564
578
582
580
575
569
562
561
557
552
548
544
530
520
518
516
519
520
521
514
508
509
502
504
506
501
494
496
498
488
488
495
494
498
502
508
509
512
513
511
519
529
537
553
570
583
598
618
635
647
662
674
673
670
668
661
651
636
617
599
583
573
559
555
556
550
545
543
540
535
532
538
537
538
541
541
542
537
544
550
556
567
567
564
563
555
546
546
538
518
505
503
498
492
496
496
499
509
511
500
504
505
500
504
510
510
509
512
510
504
503
507
502
498
500
494
491
493
491
490
488
485
478
478
480
476
481
497
511
522
540
560
574
595
621
642
667
694
711
719
727
727
719
709
701
683
664
652
636
618
603
596
584
572
563
556
552
550
546
553
560
566
563
565
567
564
560
563
563
562
563
564
556
546
536
530
524
523
510
496
496
496
495
498
499
489
482
485
478
474
481
493
484
490
495
493
493
498
492
486
491
496
492
491
490
482
480
480
473
472
475
476
475
473
471
472
472
474
465
466
466
460
467
483
494
503
517
539
563
592
623
658
682
706
719
724
724
716
697
687
674
657
634
615
598
579
569
564
552
542
538
531
529
529
525
530
538
542
544
544
545
548
544
551
551
548
548
543
533
526
520
512
502
498
494
488
485
482
472
465
463
458
461
471
472
471
476
487
485
483
485
480
478
479
468
465
473
476
475
475
477
474
469
473
468
465
467
467
463
463
463
463
457
459
451
450
450
450
452
461
462
462
463
473
476
483
495
512
531
559
591
616
640
660
671
680
686
682
671
660
640
619
601
588
567
546
534
524
513
507
509
513
517
524
518
519
525
522
518
522
522
522
519
519
511
504
504
501
501
504
506
507
508
504
495
500
499
497
495
492
491
487
496
495
488
478
481
479
478
477
472
478
480
478
481
486
483
488
490
500
500
498
499
496
486
478
474
469
468
463
459
454
454
451
449
461
471
469
467
473
470
462
462
466
466
468
476
487
505
530
556
587
620
644
663
674
682
678
672
669
649
630
608
586
562
543
531
523
516
514
508
503
503
500
498
502
507
514
514
520
518
517
530
536
540
542
543
538
533
530
516
504
498
487
479
472
470
467
474
483
471
468
480
480
478
478
478
477
477
481
473
469
468
460
455
461
463
465
465
469
469
467
476
476
472
466
460
455
454
449
444
445
457
460
463
466
465
464
459
459
458
453
459
456
457
464
475
493
517
542
563
585
611
625
635
651
656
656
649
643
626
608
601
587
578
571
560
547
532
519
507
500
506
501
502
505
505
502
505
509
507
504
508
503
504
512
513
516
523
522
515
507
512
504
506
511
509
504
502
497
487
472
467
468
469
475
474
469
469
463
457
458
465
460
455
449
449
452
459
458
455
457
463
460
458
461
461
469
479
479
479
478
477
471
466
468
464
462
463
459
458
457
459
453
455
459
456
457
463
466
468
484
501
514
531
560
583
607
635
657
671
680
679
666
650
633
611
592
579
558
535
523
513
499
489
486
479
476
485
485
488
495
502
511
514
511
513
515
523
525
532
544
546
543
539
535
520
511
506
500
491
489
479
474
473
473
468
471
476
473
469
465
461
460
462
472
473
472
474
469
468
469
471
475
479
480
477
481
476
465
453
456
456
455
456
456
458
460
465
469
471
477
477
474
479
478
478
487
490
499
511
529
552
576
608
636
667
693
707
707
695
680
654
634
617
601
581
567
553
535
521
517
506
498
497
502
501
506
512
514
508
511
514
520
525
528
537
546
552
553
552
554
545
540
536
533
526
528
510
495
486
479
466
462
466
465
473
487
483
481
482
486
483
471
468
466
464
468
474
482
485
489
486
480
476
478
472
485
486
487
487
488
478
469
459
457
455
466
474
478
482
490
493
503
515
526
545
573
602
629
663
699
713
724
726
706
683
671
651
628
611
581
550
527
514
501
495
498
499
498
502
504
505
515
523
530
536
536
532
530
530
529
536
553
565
563
556
553
543
535
531
528
519
509
505
494
490
480
464
460
458
458
458
460
463
464
470
480
486
487
483
478
474
475
480
484
484
487
480
466
462
460
466
476
481
477
476
477
472
463
465
469
469
477
489
510
535
575
608
637
668
684
693
702
707
710
705
698
688
668
650
626
606
589
568
552
535
527
521
518
524
520
510
512
513
513
517
524
528
531
541
546
548
542
535
530
526
520
519
524
533
533
524
520
506
495
484
480
474
470
479
475
471
472
468
457
452
453
450
454
459
458
456
467
462
454
454
456
457
456
461
466
463
467
478
482
490
491
491
497
506
511
518
538
566
590
618
648
672
690
713
725
732
732
726
710
693
670
640
614
589
562
540
531
517
504
498
488
478
474
473
475
478
487
496
502
514
521
526
535
544
545
547
551
546
536
531
524
510
498
486
472
460
456
457
463
470
465
462
463
462
456
453
458
459
458
461
459
457
457
458
454
455
455
458
459
467
465
462
469
471
468
462
460
458
449
452
461
469
482
490
504
525
550
577
611
660
701
733
769
792
804
800
791
781
755
735
706
670
643
610
582
558
533
511
498
488
475
478
487
492
492
499
508
513
517
520
511
509
517
526
533
545
549
541
539
533
521
507
499
488
472
462
458
454
443
437
429
425
428
430
435
440
443
448
450
453
452
450
457
460
458
459
457
452
451
452
450
449
454
451
451
451
450
448
452
452
446
444
444
437
436
443
452
452
451
449
454
460
474
486
502
536
573
617
666
713
751
785
815
824
827
825
810
787
760
725
691
656
624
588
562
545
528
517
517
512
510
506
506
499
499
501
503
506
511
516
518
521
525
523
526
527
520
518
516
508
493
483
479
468
457
450
440
436
435
437
439
441
443
440
438
441
436
436
443
441
438
438
441
438
439
440
435
439
444
443
439
440
441
437
438
435
430
435
436
432
428
433
440
443
445
448
447
446
448
441
430
426
424
425
431
433
428
425
443
447
461
484
508
531
571
615
658
694
729
747
761
768
763
752
739
714
683
654
630
595
562
539
520
496
487
479
468
470
475
472
476
488
491
493
497
501
501
501
514
515
514
517
511
505
501
503
500
499
501
493
484
478
468
460
460
460
455
452
451
446
440
440
439
436
439
439
438
438
443
438
441
445
438
434
437
436
431
435
451
453
456
461
457
456
458
453
452
454
455
451
446
448
444
441
445
444
440
440
438
433
431
438
440
440
446
452
461
485
507
534
580
626
663
701
730
748
753
756
753
737
715
688
654
620
589
558
528
503
480
467
466
475
473
475
486
488
488
491
496
499
504
518
528
541
554
560
559
563
561
550
544
537
526
516
509
498
484
475
466
457
453
454
450
452
456
455
463
471
469
471
476
478
473
477
483
485
486
488
486
483
483
483
482
482
486
482
480
485
483
476
475
477
472
475
478
479
475
476
477
473
472
470
467
467
469
470
479
489
496
498
508
518
534
561
598
634
671
709
740
759
772
775
770
757
738
712
683
657
630
592
571
547
522
505
492
482
475
482
486
491
504
512
519
529
538
540
549
561
567
568
572
570
561
554
550
543
535
531
524
515
510
499
492
485
474
465
464
464
461
466
476
479
479
481
478
475
474
475
476
475
479
476
471
474
472
468
470
471
471
468
471
455
453
463
468
466
460
461
462
461
465
468
475
485
486
482
481
476
469
470
474
473
471
479
487
494
510
525
552
586
621
649
678
706
719
726
729
717
694
667
645
617
590
576
565
549
536
521
507
499
494
484
483
492
493
496
507
516
519
531
541
543
547
555
554
552
551
542
536
531
523
510
501
496
487
480
476
479
480
483
482
475
472
473
474
473
474
468
469
477
476
470
469
472
469
468
471
469
466
467
471
468
449
452
451
450
455
462
470
480
483
481
479
482
474
450
444
440
448
457
473
496
519
559
607
645
697
747
786
819
832
831
830
818
788
754
722
679
640
608
584
562
548
533
521
506
501
493
491
502
504
500
505
511
513
517
530
534
538
548
550
547
546
541
532
526
515
499
489
486
477
472
479
478
475
473
474
468
463
467
465
460
461
456
454
453
456
448
443
457
459
459
465
467
467
468
477
476
469
474
469
467
464
455
452
454
467
470
467
478
473
467
472
475
477
488
503
518
542
584
624
659
699
732
753
765
766
757
745
729
695
662
632
598
567
548
534
519
508
507
497
491
491
488
487
493
495
496
500
509
507
511
519
523
521
525
526
522
515
517
510
499
492
481
469
470
464
462
471
476
469
465
465
464
457
457
457
455
454
460
456
454
455
453
452
453
453
456
457
465
463
461
469
467
460
458
457
455
453
462
462
456
456
452
449
440
432
435
443
448
463
480
506
534
568
611
648
683
715
739
754
756
747
733
712
694
663
632
599
568
537
514
501
481
469
471
461
457
458
462
468
483
495
499
511
521
520
517
524
523
526
528
525
523
518
516
509
502
487
472
464
456
452
448
454
461
465
466
475
470
459
453
449
446
443
446
450
448
455
456
455
458
467
474
474
479
475
470
471
459
450
448
451
462
478
505
540
574
613
644
672
687
688
681
674
663
650
637
627
605
578
556
537
519
501
483
467
461
460
447
446
445
439
441
440
447
459
467
484
495
504
515
520
523
525
527
532
533
535
524
508
495
479
462
457
454
444
439
436
426
424
427
427
428
426
428
430
431
437
440
457
471
476
476
477
477
472
467
468
463
463
467
471
481
498
520
547
584
623
657
693
722
735
733
732
716
691
663
641
610
576
558
538
521
514
504
497
495
489
483
546
538
518
505
503
498
492
496
496
499
509
511
500
504
505
500
504
510
510
509
512
510
504
503
507
502
498
500
494
491
493
491
490
488
485
478
478
480
476
481
497
511
522
540
560
574
595
621
642
667
694
711
719
727
727
719
709
701
683
664
652
636
618
603
596
584
572
563
556
552
550
546
553
560
566
563
565
567
564
560
563
563
562
563
564
556
546
536
530
524
523
510
496
496
496
495
498
499
489
482
485
478
474
481
493
484
490
495
493
493
498
492
486
491
496
492
491
490
482
480
480
473
472
475
476
475
473
471
472
472
474
465
466
466
460
467
483
494
503
517
539
563
592
623
658
682
706
719
724
724
716
697
687
674
657
634
615
598
579
569
564
552
542
538
531
529
529
525
530
538
542
544
544
545
548
544
551
551
548
548
543
533
526
520
512
502
498
494
488
485
482
472
465
463
458
461
471
472
471
476
487
485
483
485
480
478
479
468
465
473
476
475
475
477
474
469
473
468
465
467
467
463
463
463
463
457
459
451
450
450
450
452
461
462
462
463
473
476
483
495
512
531
559
591
616
640
660
671
680
686
682
671
660
640
619
601
588
567
546
534
524
513
507
509
513
517
524
518
519
525
522
518
522
522
522
519
519
511
504
504
501
501
504
506
507
508
504
495
500
499
497
495
492
491
487
496
495
488
478
481
479
478
477
472
478
480
478
481
486
483
488
490
500
500
498
499
496
486
478
474
469
468
463
459
454
454
451
449
461
471
469
467
473
470
462
462
466
466
468
476
487
505
530
556
587
620
644
663
674
682
678
672
669
649
630
608
586
562
543
531
523
516
514
508
503
503
500
498
502
507
514
514
520
518
517
530
536
540
542
543
538
533
530
516
504
498
487
479
472
470
467
474
483
471
468
480
480
478
478
478
477
477
481
473
469
468
460
455
461
463
465
465
469
469
467
476
476
472
466
460
455
454
449
444
445
457
460
463
466
465
464
459
459
458
453
459
456
457
464
475
493
517
542
563
585
611
625
635
651
656
656
649
643
626
608
601
587
578
571
560
547
532
519
507
500
506
501
502
505
505
502
505
509
507
504
508
503
504
512
513
516
523
522
515
507
512
504
506
511
509
504
502
497
487
472
467
468
469
475
474
469
469
463
457
458
465
460
455
449
449
452
459
458
455
457
463
460
458
461
461
469
479
479
479
478
477
471
466
468
464
462
463
459
458
457
459
453
455
459
456
457
463
466
468
484
501
514
531
560
583
607
635
657
671
680
679
666
650
633
611
592
579
558
535
523
513
499
489
486
479
476
485
485
488
495
502
511
514
511
513
515
523
525
532
544
546
543
539
535
520
511
506
500
491
489
479
474
473
473
468
471
476
473
469
465
461
460
462
472
473
472
474
469
468
469
471
475
479
480
477
481
476
465
453
456
456
455
456
456
458
460
465
469
471
477
477
474
479
478
478
487
490
499
511
529
552
576
608
636
667
693
707
707
695
680
654
634
617
601
581
567
553
535
521
517
506
498
497
502
501
506
512
514
508
511
514
520
525
528
537
546
552
553
552
554
545
540
536
533
526
528
510
495
486
479
466
462
466
465
473
487
483
481
482
486
483
471
468
466
464
468
474
482
485
489
486
480
476
478
472
485
486
487
487
488
478
469
459
457
455
466
474
478
482
490
493
503
515
526
545
573
602
629
663
699
713
724
726
706
683
671
651
628
611
581
550
527
514
501
495
498
499
498
502
504
505
515
523
530
536
536
532
530
530
529
536
553
565
563
556
553
543
535
531
528
519
509
505
494
490
480
464
460
458
458
458
460
463
464
470
480
486
487
483
478
474
475
480
484
484
487
480
466
462
460
466
476
481
477
476
477
472
463
465
469
469
477
489
510
535
575
608
637
668
684
693
702
707
710
705
698
688
668
650
626
606
589
568
552
535
527
521
518
524
520
510
512
513
513
517
524
528
531
541
546
548
542
535
530
526
520
519
524
533
533
524
520
506
495
484
480
474
470
479
475
471
472
468
457
452
453
450
454
459
458
456
467
462
454
454
456
457
456
461
466
463
467
478
482
490
491
491
497
506
511
518
538
566
590
618
648
672
690
713
725
732
732
726
710
693
670
640
614
589
562
540
531
517
504
498
488
478
474
473
475
478
487
496
502
514
521
526
535
544
545
547
551
546
536
531
524
510
498
486
472
460
456
457
463
470
465
462
463
462
456
453
458
459
458
461
459
457
457
458
454
455
455
458
459
467
465
462
469
471
468
462
460
458
449
452
461
469
482
490
504
525
550
577
611
660
701
733
769
792
804
800
791
781
755
735
706
670
643
610
582
558
533
511
498
488
475
478
487
492
492
499
508
513
517
520
511
509
517
526
533
545
549
541
539
533
521
507
499
488
472
462
458
454
443
437
429
425
428
430
435
440
443
448
450
453
452
450
457
460
458
459
457
452
451
452
450
449
454
451
451
451
450
448
452
452
446
444
444
437
436
443
452
452
451
449
454
460
474
486
502
536
573
617
666
713
751
785
815
824
827
825
810
787
760
725
691
656
624
588
562
545
528
517
517
512
510
506
506
499
499
501
503
506
511
516
518
521
525
523
526
527
520
518
516
508
493
483
479
468
457
450
440
436
435
437
439
441
443
440
438
441
436
436
443
441
438
438
441
438
439
440
435
439
444
443
439
440
441
437
438
435
430
435
436
432
428
433
440
443
445
448
447
446
448
441
430
426
424
425
431
433
428
425
443
447
461
484
508
531
571
615
658
694
729
747
761
768
763
752
739
714
683
654
630
595
562
539
520
496
487
479
468
470
475
472
476
488
491
493
497
501
501
501
514
515
514
517
511
505
501
503
500
499
501
493
484
478
468
460
460
460
455
452
451
446
440
440
439
436
439
439
438
438
443
438
441
445
438
434
437
436
431
435
451
453
456
461
457
456
458
453
452
454
455
451
446
448
444
441
445
444
440
440
438
433
431
438
440
440
446
452
461
485
507
534
580
626
663
701
730
748
753
756
753
737
715
688
654
620
589
558
528
503
480
467
466
475
473
475
486
488
488
491
496
499
504
518
528
541
554
560
559
563
561
550
544
537
526
516
509
498
484
475
466
457
453
454
450
452
456
455
463
471
469
471
476
478
473
477
483
485
486
488
486
483
483
483
482
482
486
482
480
485
483
476
475
477
472
475
478
479
475
476
477
473
472
470
467
467
469
470
479
489
496
498
508
518
534
561
598
634
671
709
740
759
772
775
770
757
738
712
683
657
630
592
571
547
522
505
492
482
475
482
486
491
504
512
519
529
538
540
549
561
567
568
572
570
561
554
550
543
535
531
524
515
510
499
492
485
474
465
464
464
461
466
476
479
479
481
478
475
474
475
476
475
479
476
471
474
472
468
470
471
471
468
471
455
453
463
468
466
460
461
462
461
465
468
475
485
486
482
481
476
469
470
474
473
471
479
487
494
510
525
552
586
621
649
678
706
719
726
729
717
694
667
645
617
590
576
565
549
536
521
507
499
494
484
483
492
493
496
507
516
519
531
541
543
547
555
554
552
551
542
536
531
523
510
501
496
487
480
476
479
480
483
482
475
472
473
474
473
474
468
469
477
476
470
469
472
469
468
471
469
466
467
471
468
449
452
451
450
455
462
470
480
483
481
479
482
474
450
444
440
448
457
473
496
519
559
607
645
697
747
786
819
832
831
830
818
788
754
722
679
640
608
584
562
548
533
521
506
501
493
491
502
504
500
505
511
513
517
530
534
538
548
550
547
546
541
532
526
515
499
489
486
477
472
479
478
475
473
474
468
463
467
465
460
461
456
454
453
456
448
443
457
459
459
465
467
467
468
477
476
469
474
469
467
464
455
452
454
467
470
467
478
473
467
472
475
477
488
503
518
542
584
624
659
699
732
753
765
766
757
745
729
695
662
632
598
567
548
534
519
508
507
497
491
491
488
487
493
495
496
500
509
507
511
519
523
521
525
526
522
515
517
510
499
492
481
469
470
464
462
471
476
469
465
465
464
457
457
457
455
454
460
456
454
455
453
452
453
453
456
457
465
463
461
469
467
460
458
457
455
453
462
462
456
456
452
449
440
432
435
443
448
463
480
506
534
568
611
648
683
715
739
754
756
747
733
712
694
663
632
599
568
537
514
501
481
469
471
461
457
458
462
468
483
495
499
511
521
520
517
524
523
526
528
525
523
518
516
509
502
487
472
464
456
452
448
454
461
465
466
475
470
459
453
449
446
443
446
450
448
455
456
455
458
467
474
474
479
475
470
471
459
450
448
451
462
478
505
540
574
613
644
672
687
688
681
674
663
650
637
627
605
578
556
537
519
501
483
467
461
460
447
446
445
439
441
440
447
459
467
484
495
504
515
520
523
525
527
532
533
535
524
508
495
479
462
457
454
444
439
436
426
424
427
427
428
426
428
430
431
437
440
457
471
476
476
477
477
472
467
468
463
463
467
471
481
498
520
547
584
623
657
693
722
735
733
732
716
691
663
641
610
576
558
538
521
514
504
497
495
489
483
485
491
491
485
490
483
475
473
479
485
494
508
514
518
523
523
520
510
501
484
471
466
454
454
460
456
455
455
454
443
445
439
437
436
443
445
450
455
459
453
458
459
454
450
452
446
442
441
445
440
432
434
438
437
441
441
445
451
454
454
457
463
472
484
512
536
576
622
659
695
725
750
765
769
768
751
727
704
674
648
632
609
576
549
529
511
494
485
486
484
489
488
488
485
490
492
493
510
515
516
523
527
519
511
507
495
481
473
462
459
460
458
462
458
453
448
445
448
442
443
455
465
463
463
463
455
448
454
450
445
448
449
446
451
454
453
455
463
460
455
454
450
442
441
448
445
439
444
440
434
437
442
446
455
460
457
456
457
452
450
459
469
477
501
523
555
593
637
678
710
740
759
766
764
753
732
706
677
645
606
581
556
532
524
524
516
512
512
503
502
506
505
502
505
507
506
504
507
504
501
505
509
503
504
494
489
484
481
481
466
468
470
466
465
459
459
463
465
460
457
460
457
450
452
450
448
449
451
446
443
444
442
441
449
453
455
457
459
455
452
456
452
442
442
439
441
441
446
449
451
455
457
455
454
452
444
448
449
445
445
448
448
443
445
447
452
464
477
493
515
545
579
614
650
671
690
705
709
702
694
687
669
648
627
600
570
551
533
522
514
509
504
499
498
492
485
489
492
492
493
498
500
500
504
509
507
508
497
490
483
484
482
488
499
498
492
492
483
471
470
468
465
464
462
454
452
454
451
449
452
452
453
451
454
447
442
447
447
447
451
449
450
446
449
459
465
472
472
467
466
460
459
459
458
454
450
453
450
439
442
443
443
445
446
443
444
448
447
451
459
456
459
473
492
510
539
586
624
652
681
697
706
708
697
684
666
645
610
585
569
549
528
517
506
492
487
490
486
483
488
494
498
492
489
490
492
498
505
516
531
537
542
542
536
526
515
513
505
495
489
480
473
469
463
463
462
461
457
458
461
458
454
459
456
450
446
443
442
440
447
455
456
464
460
466
468
469
469
469
473
471
465
473
470
464
460
456
453
451
454
450
446
452
447
448
451
445
442
442
443
438
447
469
479
490
509
530
554
583
613
638
658
680
682
677
671
646
619
598
576
557
541
530
515
500
490
488
489
490
492
490
490
496
500
500
510
522
528
534
531
521
518
532
532
532
535
531
521
511
501
491
482
478
468
462
466
464
457
464
466
456
451
456
453
447
453
462
463
469
471
468
464
468
461
458
464
466
464
466
465
462
460
466
464
462
464
463
457
458
458
455
456
454
446
445
450
451
462
484
502
519
546
577
597
614
634
651
657
663
657
645
631
614
592
573
557
536
522
513
505
492
488
488
483
476
480
475
479
485
494
504
521
532
534
538
545
541
530
529
524
523
523
525
521
516
510
500
493
489
480
473
475
472
467
473
476
471
466
470
467
464
473
484
482
483
485
484
482
483
477
479
484
485
480
477
480
471
468
473
473
471
475
477
474
471
470
474
480
486
490
503
526
552
582
616
644
658
670
677
671
661
652
640
621
606
589
569
553
539
524
513
508
499
494
495
498
493
495
498
498
497
508
513
519
526
536
543
550
550
544
542
540
535
518
510
504
500
493
480
469
468
477
484
480
483
483
479
481
478
475
476
481
472
468
471
470
466
469
471
476
484
491
494
490
492
487
486
488
486
480
478
480
480
483
499
515
531
558
585
609
627
645
658
663
665
658
648
635
619
606
596
586
571
559
550
535
517
510
504
497
495
497
498
500
504
506
510
518
524
526
532
536
532
531
533
527
520
515
511
502
494
493
493
494
495
490
482
478
474
467
474
475
473
472
474
472
458
460
464
466
464
457
464
472
477
479
479
477
473
468
471
472
473
488
509
522
541
567
594
613
635
643
648
661
667
662
650
640
620
595
584
566
549
535
523
503
487
482
481
476
478
476
476
483
488
491
509
528
540
544
554
555
552
554
553
548
540
534
524
511
504
490
482
480
475
471
470
473
469
465
472
472
465
462
458
457
454
458
465
470
477
479
479
480
476
470
473
478
479
480
489
498
510
530
552
579
606
629
647
657
662
655
655
645
636
619
603
588
564
550
540
525
515
512
503
489
483
476
476
478
487
489
490
500
502
503
511
519
522
523
528
525
517
517
510
496
487
473
459
452
450
452
454
464
463
458
460
460
455
451
453
454
455
463
461
459
460
458
458
459
460
459
457
466
463
455
460
456
451
449
452
451
453
479
497
518
549
578
607
640
668
689
705
722
721
707
691
676
653
630
461
469
482
490
504
525
550
577
611
660
701
733
769
792
804
800
791
781
755
735
706
670
643
610
582
558
533
511
498
488
475
478
487
492
492
499
508
513
517
520
511
509
517
526
533
545
549
541
539
533
521
507
499
488
472
462
458
454
443
437
429
425
428
430
435
440
443
448
450
453
452
450
457
460
458
459
457
452
451
452
450
449
454
451
451
451
450
448
452
452
446
444
444
437
436
443
452
452
451
449
454
460
474
486
502
536
573
617
666
713
751
785
815
824
827
825
810
787
760
725
691
656
624
588
562
545
528
517
517
512
510
506
506
499
499
501
503
506
511
516
518
521
525
523
526
527
520
518
516
508
493
483
479
468
457
450
440
436
435
437
439
441
443
440
438
441
436
436
443
441
438
438
441
438
439
440
435
439
444
443
439
440
441
437
438
435
430
435
436
432
428
433
440
443
445
448
447
446
448
441
430
426
424
425
431
433
428
425
443
447
461
484
508
531
571
615
658
694
729
747
761
768
763
752
739
714
683
654
630
595
562
539
520
496
487
479
468
470
475
472
476
488
491
493
497
501
501
501
514
515
514
517
511
505
501
503
500
499
501
493
484
478
468
460
460
460
455
452
451
446
440
440
439
436
439
439
438
438
443
438
441
445
438
434
437
436
431
435
451
453
456
461
457
456
458
453
452
454
455
451
446
448
444
441
445
444
440
440
438
433
431
438
440
440
446
452
461
485
507
534
580
626
663
701
730
748
753
756
753
737
715
688
654
620
589
558
528
503
480
467
466
475
473
475
486
488
488
491
496
499
504
518
528
541
554
560
559
563
561
550
544
537
526
516
509
498
484
475
466
457
453
454
450
452
456
455
463
471
469
471
476
478
473
477
483
485
486
488
486
483
483
483
482
482
486
482
480
485
483
476
475
477
472
475
478
479
475
476
477
473
472
470
467
467
469
470
479
489
496
498
508
518
534
561
598
634
671
709
740
759
772
775
770
757
738
712
683
657
630
592
571
547
522
505
492
482
475
482
486
491
504
512
519
529
538
540
549
561
567
568
572
570
561
554
550
543
535
531
524
515
510
499
492
485
474
465
464
464
461
466
476
479
479
481
478
475
474
475
476
475
479
476
471
474
472
468
470
471
471
468
471
455
453
463
468
466
460
461
462
461
465
468
475
485
486
482
481
476
469
470
474
473
471
479
487
494
510
525
552
586
621
649
678
706
719
726
729
717
694
667
645
617
590
576
565
549
536
521
507
499
494
484
483
492
493
496
507
516
519
531
541
543
547
555
554
552
551
542
536
531
523
510
501
496
487
480
476
479
480
483
482
475
472
473
474
473
474
468
469
477
476
470
469
472
469
468
471
469
466
467
471
468
449
452
451
450
455
462
470
480
483
481
479
482
474
450
444
440
448
457
473
496
519
559
607
645
697
747
786
819
832
831
830
818
788
754
722
679
640
608
584
562
548
533
521
506
501
493
491
502
504
500
505
511
513
517
530
534
538
548
550
547
546
541
532
526
515
499
489
486
477
472
479
478
475
473
474
468
463
467
465
460
461
456
454
453
456
448
443
457
459
459
465
467
467
468
477
476
469
474
469
467
464
455
452
454
467
470
467
478
473
467
472
475
477
488
503
518
542
584
624
659
699
732
753
765
766
757
745
729
695
662
632
598
567
548
534
519
508
507
497
491
491
488
487
493
495
496
500
509
507
511
519
523
521
525
526
522
515
517
510
499
492
481
469
470
464
462
471
476
469
465
465
464
457
457
457
455
454
460
456
454
455
453
452
453
453
456
457
465
463
461
469
467
460
458
457
455
453
462
462
456
456
452
449
440
432
435
443
448
463
480
506
534
568
611
648
683
715
739
754
756
747
733
712
694
663
632
599
568
537
514
501
481
469
471
461
457
458
462
468
483
495
499
511
521
520
517
524
523
526
528
525
523
518
516
509
502
487
472
464
456
452
448
454
461
465
466
475
470
459
453
449
446
443
446
450
448
455
456
455
458
467
474
474
479
475
470
471
459
450
448
451
462
478
505
540
574
613
644
672
687
688
681
674
663
650
637
627
605
578
556
537
519
501
483
467
461
460
447
446
445
439
441
440
447
459
467
484
495
504
515
520
523
525
527
532
533
535
524
508
495
479
462
457
454
444
439
436
426
424
427
427
428
426
428
430
431
437
440
457
471
476
476
477
477
472
467
468
463
463
467
471
481
498
520
547
584
623
657
693
722
735
733
732
716
691
663
641
610
576
558
538
521
514
504
497
495
489
483
485
491
491
485
490
483
475
473
479
485
494
508
514
518
523
523
520
510
501
484
471
466
454
454
460
456
455
455
454
443
445
439
437
436
443
445
450
455
459
453
458
459
454
450
452
446
442
441
445
440
432
434
438
437
441
441
445
451
454
454
457
463
472
484
512
536
576
622
659
695
725
750
765
769
768
751
727
704
674
648
632
609
576
549
529
511
494
485
486
484
489
488
488
485
490
492
493
510
515
516
523
527
519
511
507
495
481
473
462
459
460
458
462
458
453
448
445
448
442
443
455
465
463
463
463
455
448
454
450
445
448
449
446
451
454
453
455
463
460
455
454
450
442
441
448
445
439
444
440
434
437
442
446
455
460
457
456
457
452
450
459
469
477
501
523
555
593
637
678
710
740
759
766
764
753
732
706
677
645
606
581
556
532
524
524
516
512
512
503
502
506
505
502
505
507
506
504
507
504
501
505
509
503
504
494
489
484
481
481
466
468
470
466
465
459
459
463
465
460
457
460
457
450
452
450
448
449
451
446
443
444
442
441
449
453
455
457
459
455
452
456
452
442
442
439
441
441
446
449
451
455
457
455
454
452
444
448
449
445
445
448
448
443
445
447
452
464
477
493
515
545
579
614
650
671
690
705
709
702
694
687
669
648
627
600
570
551
533
522
514
509
504
499
498
492
485
489
492
492
493
498
500
500
504
509
507
508
497
490
483
484
482
488
499
498
492
492
483
471
470
468
465
464
462
454
452
454
451
449
452
452
453
451
454
447
442
447
447
447
451
449
450
446
449
459
465
472
472
467
466
460
459
459
458
454
450
453
450
439
442
443
443
445
446
443
444
448
447
451
459
456
459
473
492
510
539
586
624
652
681
697
706
708
697
684
666
645
610
585
569
549
528
517
506
492
487
490
486
483
488
494
498
492
489
490
492
498
505
516
531
537
542
542
536
526
515
513
505
495
489
480
473
469
463
463
462
461
457
458
461
458
454
459
456
450
446
443
442
440
447
455
456
464
460
466
468
469
469
469
473
471
465
473
470
464
460
456
453
451
454
450
446
452
447
448
451
445
442
442
443
438
447
469
479
490
509
530
554
583
613
638
658
680
682
677
671
646
619
598
576
557
541
530
515
500
490
488
489
490
492
490
490
496
500
500
510
522
528
534
531
521
518
532
532
532
535
531
521
511
501
491
482
478
468
462
466
464
457
464
466
456
451
456
453
447
453
462
463
469
471
468
464
468
461
458
464
466
464
466
465
462
460
466
464
462
464
463
457
458
458
455
456
454
446
445
450
451
462
484
502
519
546
577
597
614
634
651
657
663
657
645
631
614
592
573
557
536
522
513
505
492
488
488
483
476
480
475
479
485
494
504
521
532
534
538
545
541
530
529
524
523
523
525
521
516
510
500
493
489
480
473
475
472
467
473
476
471
466
470
467
464
473
484
482
483
485
484
482
483
477
479
484
485
480
477
480
471
468
473
473
471
475
477
474
471
470
474
480
486
490
503
526
552
582
616
644
658
670
677
671
661
652
640
621
606
589
569
553
539
524
513
508
499
494
495
498
493
495
498
498
497
508
513
519
526
536
543
550
550
544
542
540
535
518
510
504
500
493
480
469
468
477
484
480
483
483
479
481
478
475
476
481
472
468
471
470
466
469
471
476
484
491
494
490
492
487
486
488
486
480
478
480
480
483
499
515
531
558
585
609
627
645
658
663
665
658
648
635
619
606
596
586
571
559
550
535
517
510
504
497
495
497
498
500
504
506
510
518
524
526
532
536
532
531
533
527
520
515
511
502
494
493
493
494
495
490
482
478
474
467
474
475
473
472
474
472
458
460
464
466
464
457
464
472
477
479
479
477
473
468
471
472
473
488
509
522
541
567
594
613
635
643
648
661
667
662
650
640
620
595
584
566
549
535
523
503
487
482
481
476
478
476
476
483
488
491
509
528
540
544
554
555
552
554
553
548
540
534
524
511
504
490
482
480
475
471
470
473
469
465
472
472
465
462
458
457
454
458
465
470
477
479
479
480
476
470
473
478
479
480
489
498
510
530
552
579
606
629
647
657
662
655
655
645
636
619
603
588
564
550
540
525
515
512
503
489
483
476
476
478
487
489
490
500
502
503
511
519
522
523
528
525
517
517
510
496
487
473
459
452
450
452
454
464
463
458
460
460
455
451
453
454
455
463
461
459
460
458
458
459
460
459
457
466
463
455
460
456
451
449
452
451
453
479
497
518
549
578
607
640
668
689
705
722
721
707
691
676
653
630
610
588
567
550
525
510
499
495
498
501
502
497
496
507
493
496
506
512
519
525
528
525
519
516
508
501
500
489
483
481
474
467
464
465
466
468
473
472
464
463
462
459
453
447
445
439
443
446
455
465
467
465
464
466
460
453
458
455
454
457
456
454
449
448
448
446
449
450
443
447
445
442
442
440
434
431
435
438
443
463
485
504
528
561
595
623
652
677
695
714
716
709
698
681
658
632
613
585
568
557
544
529
521
517
517
510
502
494
488
490
490
491
489
499
507
511
515
517
519
523
520
516
514
509
501
492
482
470
464
465
459
454
454
452
450
448
451
447
441
442
438
435
439
444
453
459
461
458
460
463
460
452
459
459
459
458
454
447
445
445
446
443
446
444
441
443
442
438
444
445
438
442
445
439
436
438
446
448
451
452
452
449
455
458
465
482
498
511
532
560
582
600
624
639
649
657
657
650
635
620
602
582
563
542
518
508
505
503
509
517
520
518
514
500
488
492
502
507
514
519
518
518
521
515
509
508
499
491
485
483
478
474
480
474
469
471
468
462
460
461
465
467
473
471
469
469
466
459
464
465
465
463
465
462
458
460
461
458
460
458
460
457
457
455
460
462
454
448
448
444
442
447
460
462
465
471
470
463
463
460
457
459
458
453
455
458
455
449
454
452
448
450
453
459
470
483
501
517
539
560
581
606
623
635
646
656
657
650
640
624
606
589
568
549
544
540
530
523
522
513
509
510
508
505
509
513
513
513
520
519
511
507
509
507
511
520
522
523
530
527
521
517
509
500
496
495
489
477
476
473
467
473
476
475
482
479
476
473
474
470
467
467
461
457
456
454
455
455
463
465
467
473
471
469
467
466
469
473
475
473
471
472
467
468
470
461
459
457
461
458
454
454
459
460
458
458
457
459
458
465
477
489
498
505
520
538
553
570
597
622
641
656
666
661
654
652
637
626
611
587
568
554
538
521
514
506
500
493
488
489
493
506
517
522
533
542
540
542
543
541
540
542
538
527
525
520
511
508
502
495
491
492
486
480
478
477
477
479
475
466
464
469
465
470
480
483
481
483
482
478
475
476
478
479
483
482
476
477
474
470
469
471
467
466
468
469
461
461
464
464
460
456
452
449
451
457
460
469
471
467
469
468
461
456
461
467
474
483
493
509
527
553
580
602
623
649
663
676
673
667
659
644
619
596
579
563
540
530
522
511
506
504
502
500
499
501
501
508
508
505
510
513
509
506
511
516
521
531
530
531
532
526
526
525
525
518
511
507
497
492
496
495
489
484
480
475
468
471
473
470
474
473
465
468
468
469
470
475
474
469
473
467
454
451
456
456
454
460
461
461
461
464
473
479
482
482
477
478
472
468
474
473
467
468
466
470
470
479
498
517
543
574
602
628
638
656
677
692
686
674
666
649
627
612
599
583
569
554
538
523
515
507
502
500
494
494
500
503
503
508
522
528
530
540
543
547
550
549
549
541
534
522
514
509
498
496
505
506
504
498
497
491
482
478
476
477
479
476
475
473
476
473
476
482
481
481
486
483
477
480
487
484
480
476
469
468
466
469
476
482
487
489
494
504
514
522
552
575
596
618
641
653
660
667
669
665
665
651
626
606
589
569
554
542
516
500
500
495
490
494
504
505
509
517
523
522
535
539
546
554
560
557
561
565
558
546
552
545
534
528
520
509
503
499
496
489
488
482
475
467
456
453
456
456
459
461
469
473
483
491
491
513
526
527
532
529
524
514
509
504
494
498
505
510
526
543
569
586
605
614
623
637
639
636
642
636
626
611
591
568
544
528
513
494
487
477
470
469
468
467
467
478
482
481
487
496
504
516
529
539
548
550
546
536
535
524
523
523
517
508
496
487
477
461
462
462
462
464
463
459
457
458
463
462
470
472
468
472
471
470
475
478
477
471
476
482
486
509
538
570
600
638
676
703
730
743
748
751
740
718
694
670
642
607
587
566
540
525
511
498
492
487
491
491
493
491
490
499
506
516
537
551
561
562
569
565
557
556
551
541
536
528
518
500
491
482
470
475
474
468
468
469
467
466
472
474
467
463
468
465
471
477
487
493
496
498
490
484
485
485
497
508
518
536
564
599
630
668
705
734
765
782
785
784
775
760
741
720
690
652
628
599
575
564
561
559
552
553
549
539
536
529
525
530
532
534
534
541
544
541
550
550
546
550
547
543
536
532
527
510
499
485
474
466
462
461
471
478
480
474
480
477
473
476
479
482
477
479
483
479
482
481
475
481
480
484
497
516
539
562
