407
339
306
294
297
310
327
346
368
388
402
415
425
435
445
456
476
504
536
582
633
685
736
781
818
838
843
836
813
781
739
694
653
612
577
548
525
506
489
480
475
473
474
471
471
473
476
480
483
490
495
501
507
511
512
511
510
507
501
494
484
471
462
446
438
430
425
420
418
416
414
411
414
415
415
419
421
423
424
426
431
433
438
439
441
443
441
441
441
441
445
451
467
489
519
566
618
675
731
781
818
837
844
833
812
781
739
697
651
608
568
534
509
488
473
465
458
457
455
456
462
466
473
482
491
501
509
519
528
536
541
537
535
525
510
493
478
465
453
442
436
426
420
415
413
414
413
417
421
421
423
424
429
435
436
441
441
442
443
441
441
442
443
446
449
461
479
508
550
602
662
724
783
834
864
881
881
866
836
793
748
697
647
602
563
534
511
494
485
477
473
470
473
475
475
477
478
480
481
482
488
491
495
501
503
504
502
495
492
483
474
465
455
446
433
424
418
411
410
405
401
402
400
402
405
407
412
414
421
423
425
428
430
435
437
436
438
436
437
437
444
455
473
504
541
590
647
703
757
799
828
842
837
822
791
751
710
664
621
577
541
512
487
469
459
452
451
447
448
448
449
454
461
470
477
487
496
503
507
508
510
509
504
498
488
475
463
452
448
438
429
425
417
412
407
403
404
402
404
407
409
413
415
417
423
426
431
432
436
439
438
440
440
445
454
466
487
512
547
587
634
680
719
748
764
763
752
728
698
660
616
575
535
500
471
451
444
440
443
450
458
472
484
500
519
540
566
590
613
632
644
651
653
648
634
613
588
558
526
492
461
435
411
391
374
359
349
341
336
334
334
336
341
343
349
353
362
373
384
397
410
426
441
458
483
511
543
586
639
698
757
815
866
898
913
913
892
855
800
735
669
600
532
467
414
368
332
307
291
283
281
289
305
326
359
398
449
507
567
629
685
732
766
781
781
763
732
690
638
582
523
463
414
370
335
308
284
270
259
255
258
265
277
293
312
335
362
395
433
473
516
559
609
663
723
786
848
909
961
980
980
979
979
979
941
886
821
759
697
641
597
565
550
543
545
551
556
560
555
543
530
506
478
445
414
382
349
323
299
280
269
262
265
272
284
300
319
344
365
382
397
409
415
420
421
420
414
408
403
397
394
392
399
407
420
438
460
489
518
549
585
619
655
690
725
765
798
837
875
911
942
964
977
979
967
944
907
862
807
743
680
616
555
502
456
428
409
402
408
420
440
462
485
507
518
523
516
503
478
448
420
387
357
329
300
277
257
243
236
235
243
257
274
294
311
331
350
369
387
400
415
430
445
466
495
530
573
620
670
716
761
800
832
860
876
889
891
886
875
861
845
826
804
785
767
752
737
721
708
688
667
641
610
578
543
509
479
449
432
418
414
419
429
450
474
500
525
544
559
566
564
554
538
520
498
477
458
441
429
420
418
418
418
419
421
420
418
415
415
416
415
418
415
413
410
405
402
400
398
404
413
429
446
467
491
511
526
538
545
544
532
517
499
475
452
429
412
392
376
364
355
351
347
345
346
346
347
347
349
355
356
361
365
372
379
384
394
402
409
417
420
423
422
421
421
418
415
410
403
398
389
385
380
377
375
371
370
367
367
368
369
373
375
375
378
378
378
380
385
393
405
423
445
474
507
543
586
623
653
674
681
678
664
642
615
584
552
521
492
468
451
438
434
429
428
427
428
428
428
431
436
442
451
458
471
486
502
521
544
568
590
607
620
623
621
613
600
583
561
540
516
493
472
452
442
434
432
430
432
440
447
459
476
497
525
557
595
634
670
704
734
753
762
762
756
744
724
703
682
664
646
628
613
596
581
567
553
537
521
506
494
480
471
467
473
483
493
508
524
541
557
564
571
568
563
554
537
518
496
474
457
440
423
410
398
392
380
371
365
362
356
349
346
342
338
336
335
335
337
340
343
345
350
354
364
376
390
410
435
464
493
522
553
575
589
595
592
581
565
540
517
491
465
445
426
413
399
390
387
383
385
386
390
394
398
404
412
421
430
436
443
447
450
453
454
459
456
454
451
445
441
435
432
429
422
421
416
413
411
407
409
408
408
410
409
410
409
409
413
415
418
418
419
422
419
418
422
427
438
452
473
498
523
554
582
610
631
643
649
645
633
619
600
575
553
531
509
490
475
464
462
462
458
458
456
456
455
455
458
461
466
470
472
478
480
481
486
486
487
487
486
484
477
473
469
466
462
455
451
446
443
442
439
441
440
441
442
439
439
438
439
441
439
443
444
446
452
454
465
481
502
531
566
607
648
686
721
745
760
762
755
741
716
688
660
629
600
572
547
528
510
497
489
484
484
483
485
487
489
494
498
505
511
517
526
528
530
529
529
530
524
521
515
509
503
492
486
481
475
472
467
466
462
461
463
459
457
453
452
450
449
449
449
451
452
450
450
451
450
455
463
476
495
524
562
608
657
707
754
794
819
830
829
813
788
753
719
679
638
601
566
538
513
494
485
478
476
477
477
481
484
489
497
502
511
518
526
533
536
541
543
544
542
535
530
519
507
497
487
479
471
466
464
458
456
452
452
452
450
451
451
452
451
448
448
448
447
448
446
447
447
449
453
460
472
489
512
547
587
636
689
735
775
800
814
814
799
775
744
707
666
623
583
544
511
484
464
454
447
444
445
446
451
453
464
471
478
488
497
507
516
521
528
532
533
533
527
522
511
501
496
486
475
464
459
454
446
440
436
436
438
434
434
433
434
434
437
440
440
441
445
444
445
443
442
444
444
448
459
477
505
537
584
634
682
726
762
785
795
790
776
748
712
671
625
582
537
499
469
445
428
416
410
406
403
403
410
420
431
441
456
468
480
491
501
511
517
522
523
522
519
515
512
508
502
497
493
489
485
482
486
488
489
490
488
488
484
479
479
474
471
466
461
459
453
450
448
447
448
451
461
477
498
533
579
633
690
745
795
833
857
865
859
837
803
758
710
656
604
553
511
475
446
427
414
407
404
405
416
425
437
453
466
482
494
508
521
531
542
549
554
556
550
540
531
522
510
495
482
467
458
450
443
441
435
433
432
430
431
431
433
437
438
441
442
442
441
440
443
443
445
450
456
471
492
522
568
624
687
749
807
852
879
891
886
865
828
781
732
675
618
565
517
478
447
423
407
399
395
396
400
408
419
432
452
468
485
501
517
532
543
550
551
547
537
522
503
486
469
454
438
426
413
403
398
393
388
385
386
387
387
389
392
395
398
399
403
404
404
405
408
411
412
413
420
427
439
461
492
533
584
643
701
755
794
820
831
830
810
776
733
686
631
574
525
476
435
404
381
366
357
353
359
365
379
393
409
428
445
464
485
503
517
529
540
543
542
538
530
521
507
491
477
460
446
433
423
418
410
409
405
404
406
409
419
431
442
458
471
487
495
506
519
525
535
548
566
595
627
669
715
760
801
831
853
862
851
830
798
759
714
664
617
569
527
490
462
447
435
429
425
423
429
431
441
448
458
472
486
501
515
526
542
551
556
557
551
541
525
506
489
466
450
432
416
400
387
382
376
373
374
371
374
376
379
384
390
400
406
415
426
435
448
463
485
511
543
587
634
684
732
772
807
823
827
818
795
764
725
679
637
595
557
525
497
473
456
444
437
429
425
420
416
415
413
415
417
424
436
447
459
472
486
499
512
521
527
532
537
534
530
524
520
516
509
500
489
481
473
459
450
440
431
424
414
405
396
393
396
399
406
421
446
485
534
601
679
761
839
902
948
973
977
961
929
881
822
757
693
627
567
515
471
443
421
408
401
398
402
406
417
432
444
462
477
493
508
520
534
543
551
552
549
543
530
515
502
485
469
454
441
429
416
407
401
396
399
399
404
406
408
415
419
423
425
427
430
430
432
437
454
483
519
576
644
721
799
866
922
956
970
960
929
888
828
762
699
631
575
524
486
456
439
433
430
429
432
435
443
450
454
466
479
495
512
530
554
573
590
602
608
610
603
591
575
549
523
493
466
441
417
400
383
374
366
361
367
373
385
401
413
431
443
457
468
474
482
484
492
508
529
571
626
690
755
811
857
885
894
884
852
814
760
703
642
586
537
491
455
433
412
397
389
384
380
381
391
401
415
430
448
469
488
504
520
533
545
550
548
541
530
517
505
489
475
460
451
444
435
431
425
422
419
415
413
412
410
411
410
411
412
414
417
421
428
439
465
503
548
610
678
747
811
855
886
895
887
862
818
767
707
645
589
535
489
449
421
404
386
375
372
370
371
375
385
400
416
438
462
485
508
523
539
548
553
553
548
539
527
516
503
485
468
456
449
444
434
430
421
416
410
403
401
398
397
400
397
398
397
398
404
405
410
415
425
441
463
497
540
589
641
682
716
734
735
722
695
658
612
559
509
454
409
369
341
318
299
290
283
280
279
280
289
298
309
322
335
350
366
383
402
419
437
452
462
470
473
475
474
467
459
447
436
425
411
400
389
381
375
368
364
361
358
359
363
368
372
375
383
384
388
389
391
398
405
417
436
466
507
560
630
704
778
843
888
915
919
906
876
827
772
708
643
583
525
477
443
419
404
393
390
388
389
393
400
407
414
421
431
441
451
461
472
484
490
495
496
495
488
479
473
462
449
438
426
417
407
399
398
395
392
388
385
387
386
389
397
407
419
432
448
465
485
510
543
587
643
703
770
836
895
944
975
980
979
968
933
884
828
765
710
656
603
561
527
501
483
469
466
462
461
459
458
458
459
460
465
468
476
482
488
493
495
498
502
501
499
494
488
479
469
458
448
440
433
425
421
413
408
405
402
403
403
404
408
405
407
407
409
412
408
407
405
404
405
409
425
448
481
526
577
636
690
737
777
800
805
795
775
743
699
648
600
555
512
473
446
422
404
393
387
384
383
385
391
398
407
418
431
446
459
473
485
494
500
502
506
505
501
495
485
474
461
446
436
427
422
415
408
406
399
397
398
399
401
402
405
408
407
411
413
415
418
420
424
425
428
438
453
479
514
561
620
680
741
798
845
877
889
882
859
824
778
726
672
619
570
528
488
456
437
425
419
417
420
425
433
441
448
457
472
486
499
509
519
526
531
534
532
527
518
506
493
478
462
451
443
437
428
421
417
413
407
403
402
403
404
406
408
411
415
415
419
423
425
429
430
431
431
432
438
445
457
480
513
561
615
679
741
798
844
871
884
878
859
826
780
730
674
622
572
524
484
451
434
425
416
414
411
414
418
423
433
442
452
465
478
492
502
511
521
526
530
532
527
520
508
495
483
467
456
443
430
419
408
404
400
398
398
397
398
398
399
403
406
413
417
420
425
426
426
427
430
433
434
439
444
454
474
502
544
597
660
727
788
841
877
897
904
888
859
815
762
707
648
594
543
499
463
436
418
405
396
395
398
405
412
421
432
443
456
468
483
496
508
518
525
528
528
522
517
508
492
480
464
454
442
429
424
416
411
406
401
399
397
398
400
400
403
406
409
413
412
415
418
420
424
424
427
427
430
438
452
477
512
560
618
679
746
804
853
887
901
895
876
845
802
746
694
635
580
530
485
449
424
407
399
394
395
398
403
411
419
431
445
461
478
491
504
514
521
523
524
522
517
510
499
485
472
459
448
437
425
415
410
403
399
396
396
396
396
399
402
403
408
407
415
420
423
426
427
428
426
426
430
429
434
442
457
483
516
563
623
686
751
806
853
883
893
887
865
829
784
730
675
617
565
516
476
448
424
411
403
399
400
403
412
422
432
445
457
473
486
497
511
519
526
530
528
521
513
504
492
479
467
455
447
439
428
420
416
415
411
407
409
408
407
408
408
411
414
417
420
421
424
425
429
433
434
435
432
431
429
430
444
461
487
521
566
622
681
740
798
844
877
892
889
873
839
795
744
690
631
579
535
496
462
438
423
415
410
409
411
416
425
436
449
463
477
491
504
514
522
524
532
535
532
525
514
501
485
467
456
445
434
426
419
415
409
407
408
407
407
407
411
414
412
415
417
419
425
426
429
430
431
433
435
440
439
440
443
447
457
477
511
555
608
670
734
796
847
882
903
904
888
857
812
762
704
645
591
539
495
459
436
421
408
404
406
411
420
428
439
451
464
477
492
506
516
524
531
532
531
530
523
516
504
490
475
458
446
433
425
419
412
408
403
403
402
401
405
406
410
411
412
415
416
420
424
425
428
430
433
435
434
434
435
436
441
445
458
479
510
553
611
680
748
814
870
910
934
935
921
891
845
791
732
669
608
551
505
465
438
419
406
402
401
403
410
419
433
447
462
476
490
505
520
531
541
545
545
540
527
513
502
488
474
457
447
434
425
418
410
406
402
402
405
402
403
401
406
414
413
415
419
423
427
428
433
434
436
437
435
435
434
435
442
453
475
504
544
600
665
736
805
865
912
938
943
928
896
851
796
738
676
615
560
510
469
442
423
413
406
405
410
414
425
433
446
463
476
492
504
516
525
531
537
535
530
521
509
495
477
462
451
438
429
418
410
404
397
393
392
393
396
398
400
402
404
406
410
416
419
423
426
428
430
430
432
435
434
435
436
440
449
465
496
539
593
660
730
801
858
904
934
941
930
899
854
799
735
671
613
558
510
471
447
427
414
408
406
409
415
421
431
442
455
469
483
498
508
517
525
527
525
518
510
501
486
472
457
446
435
422
416
409
405
400
395
395
393
394
397
398
399
402
405
410
411
416
420
423
428
431
434
435
436
436
434
433
433
435
442
456
479
518
573
641
713
786
852
902
933
944
936
911
868
817
756
694
632
575
530
488
456
436
422
416
411
412
419
424
432
442
454
469
480
492
503
513
523
526
528
524
514
505
492
480
463
451
440
426
416
406
398
395
392
392
391
393
396
397
403
406
409
413
416
420
423
424
432
436
444
449
455
464
467
472
480
484
490
496
505
520
542
579
629
689
753
814
868
910
934
941
930
903
863
813
758
700
645
594
555
525
499
482
466
460
454
447
447
446
447
453
459
473
491
515
549
581
613
641
662
671
667
656
637
607
574
535
498
460
428
405
389
382
377
379
385
391
403
412
424
436
444
452
457
458
456
451
450
445
438
433
425
422
416
413
414
415
423
433
450
477
510
554
609
664
715
753
781
791
781
760
727
687
639
587
540
494
453
419
397
383
369
362
358
355
360
365
379
394
412
434
454
475
494
505
519
523
526
522
510
498
480
465
454
440
428
418
412
405
400
397
397
396
394
391
389
386
381
375
371
371
369
368
369
369
372
374
380
385
392
401
407
419
436
459
492
535
590
653
720
784
837
876
903
906
891
862
816
762
701
639
580
524
478
440
414
397
382
378
379
385
391
399
412
424
439
457
474
491
505
518
528
534
533
531
526
517
502
487
470
454
438
422
412
402
393
388
382
380
381
384
391
396
403
409
413
420
421
423
428
431
434
435
438
440
444
453
471
502
544
602
674
750
825
893
943
973
978
964
932
883
823
757
697
639
585
541
507
484
469
461
461
461
463
466
462
461
458
458
460
463
469
474
483
491
494
497
500
499
498
494
487
477
467
455
446
436
427
418
412
404
398
394
392
396
396
399
399
399
402
402
406
410
412
416
418
420
422
423
432
446
470
505
553
616
683
758
830
888
929
949
948
927
886
837
778
718
656
600
552
511
481
460
449
446
444
444
444
442
443
442
445
449
453
462
467
475
482
485
494
496
496
493
486
479
468
457
448
435
425
414
407
400
393
391
391
392
393
395
397
400
400
401
404
408
411
415
418
419
420
421
423
426
429
437
453
475
508
554
616
686
753
815
865
899
914
907
885
850
803
752
693
637
586
539
505
477
460
448
448
450
448
450
452
456
459
460
463
468
471
479
483
488
491
494
493
490
483
476
471
463
453
444
435
424
416
406
401
398
392
394
393
394
395
397
405
407
412
415
417
421
420
422
424
425
427
428
429
433
439
454
479
517
568
624
690
750
803
843
867
876
865
840
803
757
707
654
606
566
530
503
481
468
462
458
460
457
458
459
461
463
465
470
478
485
494
498
504
507
506
505
500
493
486
476
468
457
444
435
428
422
418
412
408
406
405
403
405
407
409
415
418
419
422
423
428
430
431
432
432
434
435
439
454
476
508
550
603
663
725
782
830
862
877
872
849
816
770
723
671
623
579
538
507
482
465
459
452
450
447
448
452
452
455
458
467
476
484
493
499
505
509
507
507
504
498
490
478
467
455
445
433
423
416
409
405
400
396
397
400
400
402
403
407
413
416
419
423
429
432
432
432
432
431
431
433
436
440
444
456
476
507
549
605
669
733
794
843
878
897
892
877
845
802
753
698
647
594
552
518
489
470
457
451
448
444
444
447
452
458
463
470
478
485
493
500
506
508
508
508
501
495
486
477
469
457
445
435
423
415
406
402
400
398
399
400
400
401
401
407
410
414
419
421
424
424
425
428
428
430
429
429
432
428
426
426
426
430
432
444
460
488
528
581
645
714
782
845
889
916
921
911
885
841
788
730
670
613
559
517
481
455
441
431
426
422
422
428
434
441
449
458
469
478
488
496
504
510
511
510
506
499
493
484
475
465
452
441
427
417
408
401
400
396
394
394
394
395
396
402
406
408
411
413
415
418
418
421
423
424
426
426
428
426
426
431
430
431
428
428
431
431
440
456
485
527
582
650
724
800
866
919
954
965
956
929
882
824
758
693
628
569
520
478
448
428
415
414
416
420
424
431
439
448
458
473
484
496
504
509
514
514
513
512
506
498
486
475
463
447
437
425
415
407
400
394
389
386
385
387
391
394
398
403
403
407
410
413
417
418
419
422
425
428
427
431
433
434
435
433
431
427
425
425
422
424
427
441
464
494
541
607
683
764
839
904
950
975
978
960
924
872
809
740
670
604
544
494
456
430
415
404
402
402
403
412
423
434
447
461
474
488
499
510
518
523
527
526
524
513
499
490
475
461
447
438
428
415
407
401
397
397
393
393
392
394
396
398
403
406
411
413
415
418
418
422
427
428
430
430
431
431
429
430
429
429
430
427
428
425
424
431
443
465
495
538
596
665
741
818
885
934
966
976
965
933
884
825
759
691
620
561
505
459
427
407
396
391
393
399
406
414
424
440
458
473
490
503
516
526
532
537
537
535
527
513
499
482
466
455
444
434
422
413
405
397
393
392
393
393
394
397
400
402
405
408
413
416
420
425
426
425
425
429
430
431
433
437
439
440
439
441
441
441
440
439
445
457
479
514
561
625
700
777
854
914
960
979
979
975
937
885
820
747
678
608
544
494
450
424
405
395
394
398
411
418
431
447
460
474
488
504
519
529
539
544
547
545
536
529
515
500
484
466
453
437
426
418
407
401
395
393
391
388
389
395
401
406
408
413
417
419
421
422
426
428
427
431
431
430
431
434
436
436
435
434
432
433
430
431
434
442
460
485
522
577
645
727
808
880
938
974
979
979
958
913
855
790
720
651
587
526
477
441
418
402
394
395
399
405
413
424
439
453
469
485
499
514
524
535
544
546
544
537
526
507
490
474
457
442
430
418
408
397
391
388
386
388
389
390
392
392
394
399
402
405
405
410
413
414
416
420
424
428
428
428
427
426
426
425
425
424
423
424
423
430
442
469
503
553
618
688
763
833
889
932
955
958
942
904
855
795
731
669
606
546
497
458
431
411
400
395
397
402
408
416
428
443
462
478
493
509
520
531
538
539
539
535
526
512
498
482
464
450
435
425
417
409
404
397
395
393
391
394
393
395
398
402
406
407
413
422
424
429
430
431
434
433
437
437
438
437
435
435
436
441
455
480
517
566
627
699
767
834
886
921
939
933
913
872
820
761
696
637
579
527
488
453
432
418
411
408
410
416
421
429
439
449
459
474
487
499
508
512
519
520
520
516
510
501
490
478
464
450
437
427
419
410
405
401
397
395
395
398
399
401
405
407
414
415
416
422
425
429
431
432
435
433
433
435
434
436
433
435
437
440
452
474
507
555
613
684
753
818
870
907
926
926
905
868
817
760
697
640
584
535
496
463
441
427
419
418
419
422
426
433
441
450
460
472
484
497
508
515
519
517
513
509
500
492
482
471
460
445
433
424
415
408
400
397
394
393
394
394
395
399
402
407
409
413
415
421
426
428
432
432
432
435
433
436
435
433
432
429
427
428
429
439
454
478
513
560
620
682
748
810
860
894
908
905
884
847
798
744
686
628
574
531
490
457
439
428
421
418
419
424
427
435
441
454
465
477
492
502
510
518
521
526
523
519
511
498
487
473
458
449
437
430
424
417
413
404
399
396
397
403
402
402
404
409
415
421
428
432
436
438
439
442
441
443
443
441
442
441
438
438
435
441
450
467
494
528
579
636
698
762
814
857
884
892
883
857
821
775
724
671
617
572
532
496
471
455
448
442
438
440
440
443
449
457
469
478
488
497
505
512
514
517
516
510
504
495
485
474
459
452
442
435
430
421
416
409
406
405
402
403
404
407
411
411
414
417
422
424
426
430
431
432
436
437
439
441
439
436
434
431
428
430
436
445
461
485
520
563
617
680
741
795
839
866
872
867
844
809
766
719
670
619
575
534
501
480
462
455
450
449
449
448
450
454
463
469
474
481
488
495
500
503
505
506
505
505
495
486
475
468
458
447
440
431
424
417
410
407
404
404
404
403
406
405
407
413
416
421
423
427
430
429
431
433
436
437
436
437
435
433
431
430
432
433
434
441
453
474
504
547
602
662
723
780
827
858
871
871
856
824
783
733
683
635
584
542
505
478
459
447
440
435
436
442
444
450
455
462
472
477
487
496
504
511
513
515
513
507
500
491
484
471
461
450
438
429
420
414
411
405
403
401
399
400
400
404
409
413
417
419
423
424
425
429
430
434
433
433
436
434
433
436
435
437
436
437
439
441
452
472
499
539
587
647
707
765
815
852
875
878
868
839
799
754
700
649
599
554
516
485
461
447
436
434
434
436
442
445
453
461
470
483
493
505
513
521
525
526
523
519
512
502
488
474
460
449
438
431
424
417
412
407
404
402
402
405
409
411
415
419
420
422
423
428
431
433
436
436
438
439
438
439
440
439
440
437
438
437
442
455
472
500
536
590
651
712
774
830
872
899
906
895
867
827
779
724
669
616
568
528
494
470
453
448
446
444
445
446
450
455
460
468
476
486
495
501
509
512
514
516
515
511
502
492
482
468
455
446
435
426
417
411
407
402
399
399
403
406
407
409
412
413
416
420
425
426
428
432
431
432
432
435
438
438
439
438
437
436
432
431
431
438
451
470
502
542
597
663
730
794
847
885
905
904
888
857
815
765
708
651
596
548
509
479
460
446
439
438
435
436
438
443
449
456
466
476
484
491
499
508
513
516
518
514
509
501
488
478
466
455
445
433
425
416
410
407
404
404
403
404
406
405
408
411
414
420
420
425
426
425
428
430
435
437
440
440
438
438
436
437
439
436
435
434
437
446
460
487
522
571
628
691
755
813
856
888
898
892
870
835
787
731
676
622
573
529
493
466
448
437
432
430
431
434
439
448
457
466
477
488
498
506
514
522
523
522
517
511
506
495
486
473
459
446
434
426
418
412
408
404
403
400
399
404
405
410
412
416
420
421
424
430
434
439
440
442
442
441
441
440
440
438
438
441
440
440
441
451
465
488
522
568
625
689
752
813
860
891
906
904
885
850
803
752
696
639
586
537
498
464
442
430
423
423
424
430
438
446
458
472
488
504
515
525
534
540
544
541
541
533
523
510
492
477
459
451
443
434
429
419
413
411
406
408
405
406
407
408
411
413
417
423
426
430
432
435
439
438
439
440
440
439
439
441
441
443
452
470
500
536
589
653
719
785
844
890
920
929
920
893
852
800
738
681
624
571
525
487
457
439
427
426
423
425
430
435
443
452
464
480
493
509
518
526
533
535
534
530
523
514
499
486
467
453
442
430
420
412
407
403
398
396
395
397
401
402
405
410
413
416
417
423
427
429
434
437
441
439
438
439
439
440
438
437
440
443
455
478
513
561
620
692
766
833
891
932
954
956
937
902
852
795
733
672
615
562
516
485
456
441
430
427
429
429
432
439
446
455
463
478
490
500
510
515
520
520
521
519
511
503
490
477
467
451
438
428
416
411
403
397
391
387
387
386
393
398
401
405
407
409
411
415
420
420
422
424
425
427
427
430
431
431
429
428
429
429
433
445
466
498
540
594
658
722
788
848
891
918
925
914
886
843
790
733
677
621
567
526
488
459
444
432
428
425
429
434
440
448
457
472
488
498
509
517
526
534
534
534
528
519
509
495
481
463
448
437
427
419
410
403
399
395
393
395
397
400
402
403
408
411
415
422
427
432
432
434
434
433
434
435
438
440
446
462
483
515
563
626
695
764
829
880
914
933
928
910
874
828
773
713
656
599
549
514
482
459
444
436
432
426
426
429
432
440
444
454
464
475
486
497
507
512
515
515
508
501
490
480
469
455
442
429
418
407
399
397
396
395
396
398
399
401
402
407
410
415
420
423
427
429
431
434
436
436
435
434
435
433
435
440
452
474
504
550
607
675
747
817
877
921
943
946
927
893
845
788
730
668
613
564
524
493
467
454
444
439
439
436
438
438
441
447
454
464
474
484
493
499
505
509
510
507
500
491
479
466
455
442
430
418
409
403
396
391
388
390
393
394
397
401
403
407
408
411
414
416
420
421
424
425
427
431
432
433
432
431
431
429
430
435
443
464
488
524
574
638
709
780
843
892
919
929
917
886
843
789
735
674
617
569
521
484
456
443
434
428
425
424
426
430
431
440
447
456
466
473
485
490
493
497
499
500
494
487
482
470
461
452
441
432
423
416
413
407
404
404
406
407
406
409
410
412
414
417
423
425
431
436
438
441
441
444
446
444
444
441
439
437
433
435
438
449
469
496
538
591
655
727
793
850
890
911
913
895
864
819
766
707
648
592
541
497
463
440
423
412
407
407
407
411
419
430
441
452
465
477
490
500
504
514
516
515
509
500
489
477
463
454
439
428
417
409
403
396
393
394
393
397
398
401
404
404
404
408
413
418
419
422
424
427
430
433
437
438
437
439
435
433
429
429
430
430
436
449
471
504
546
607
675
748
816
872
912
931
932
915
882
837
785
725
667
609
559
519
489
465
450
442
436
432
431
432
436
441
446
454
460
468
477
488
495
499
503
502
499
492
483
475
466
453
442
430
420
411
402
399
398
398
400
398
398
398
400
404
405
408
411
415
421
422
424
428
432
436
435
437
435
435
435
430
428
426
424
427
431
440
457
488
527
578
639
706
772
831
873
902
910
901
877
836
788
730
669
614
560
515
478
450
431
416
411
409
410
414
419
429
438
449
461
474
488
501
509
515
517
516
512
505
497
487
475
465
451
438
425
418
413
408
403
400
399
400
399
403
405
409
413
415
420
421
423
429
432
435
437
440
441
439
439
439
439
441
442
448
458
472
500
536
583
637
695
752
801
835
857
865
856
832
796
750
698
644
588
542
500
462
435
414
401
394
392
398
405
418
433
449
467
483
500
514
525
534
538
539
537
526
514
501
488
475
460
448
437
428
421
416
415
412
412
414
413
415
414
416
421
422
425
430
433
437
438
442
441
443
446
445
447
448
452
462
475
497
528
570
619
670
723
776
819
849
860
857
840
809
769
725
678
630
584
543
506
474
451
439
430
425
426
430
435
444
453
466
482
496
512
524
535
545
548
550
548
541
532
518
504
486
469
459
446
436
425
418
415
409
406
405
407
412
413
418
420
422
423
425
429
431
433
435
436
439
440
448
460
475
497
526
564
611
660
712
759
797
827
841
841
827
799
768
727
684
637
593
554
518
489
469
454
447
440
437
437
438
440
448
460
473
487
502
516
529
542
548
553
552
546
539
525
511
493
480
465
452
443
432
424
419
414
414
414
417
421
422
424
427
430
436
442
446
448
449
454
456
466
480
502
533
572
620
672
725
776
821
855
874
877
866
840
803
760
713
666
618
574
534
500
473
450
439
431
426
426
426
433
442
453
471
489
509
526
544
559
568
571
574
566
557
542
524
506
481
460
442
428
416
406
401
396
394
395
399
403
406
411
415
418
421
424
430
437
442
446
452
461
475
496
528
573
628
686
743
798
841
874
889
890
876
850
811
763
710
656
612
567
527
492
466
448
434
424
419
419
420
424
433
442
454
469
484
499
512
524
531
534
534
527
518
506
490
473
456
444
430
416
410
404
398
397
395
396
395
396
401
402
404
407
413
420
421
424
429
433
438
438
440
440
438
440
443
457
475
505
549
605
674
747
825
892
943
976
979
979
963
925
878
824
770
715
665
622
588
560
543
529
518
510
500
493
484
478
474
469
469
470
471
478
482
490
496
503
508
505
502
495
485
475
464
454
440
428
419
408
398
392
391
392
389
391
393
396
402
402
405
409
413
418
420
423
424
426
431
432
433
433
432
434
431
430
429
426
424
421
419
419
418
426
444
474
513
563
628
696
765
828
877
912
927
925
907
875
832
780
731
683
633
592
558
532
514
498
491
483
477
472
469
468
465
466
468
470
473
475
477
478
477
480
479
483
484
480
475
468
459
448
440
433
423
416
410
403
399
395
394
392
391
394
395
397
399
399
402
405
407
410
410
415
414
415
416
416
419
419
418
416
413
413
415
417
416
416
418
418
414
411
411
411
415
419
431
449
474
508
548
594
641
683
719
741
749
746
735
716
687
653
616
582
553
523
504
487
478
473
468
466
464
464
465
464
466
465
467
469
470
470
474
479
482
481
481
478
475
473
469
464
459
454
449
442
435
431
428
429
426
422
423
419
420
418
419
420
419
421
421
421
422
422
424
426
429
430
429
431
429
428
429
427
428
426
427
428
426
426
427
427
429
428
428
427
427
430
434
446
458
476
499
523
551
577
601
619
630
637
632
619
604
581
561
541
521
505
489
478
469
464
465
464
464
464
465
464
462
464
465
466
470
471
474
477
478
477
480
480
478
477
475
471
467
463
459
455
451
448
443
440
438
436
439
440
439
437
437
439
437
436
439
440
440
442
440
440
438
440
444
444
447
446
447
448
445
442
440
440
442
441
442
442
441
443
445
447
448
451
455
461
471
484
500
518
537
557
577
590
596
598
596
590
578
566
550
534
518
502
490
480
475
470
467
467
466
465
469
472
477
478
480
481
480
482
484
488
490
491
493
492
489
487
486
486
483
478
478
473
469
465
463
463
459
457
455
453
452
450
452
454
456
457
457
459
457
456
460
459
458
459
459
461
459
458
457
458
457
456
456
455
456
455
455
454
453
451
451
450
451
454
464
476
488
502
520
539
562
580
596
610
618
622
620
613
601
584
573
557
542
528
511
501
489
483
480
477
478
480
482
487
488
493
499
507
515
517
521
521
522
520
518
517
515
511
507
501
496
490
486
484
480
476
474
472
469
468
468
470
471
471
471
472
470
468
469
470
471
470
469
471
469
469
470
469
470
469
468
468
466
467
470
470
471
470
469
469
467
472
477
488
499
514
535
558
583
606
631
655
669
677
677
671
658
641
624
603
583
564
545
530
515
504
500
494
492
492
494
498
502
508
515
526
536
542
548
552
554
553
555
555
552
548
544
536
529
519
512
506
500
495
490
485
482
478
481
480
479
477
477
479
478
478
481
481
482
484
483
485
485
485
489
490
491
489
487
487
486
489
497
512
532
554
583
613
645
677
702
722
734
739
735
722
705
680
655
629
600
573
552
533
516
501
492
486
484
484
487
496
502
512
528
541
555
566
576
583
585
586
586
584
576
566
557
547
532
522
514
507
499
491
484
478
474
473
473
476
475
474
477
479
478
475
477
480
480
481
482
482
486
490
500
512
531
554
581
612
645
678
715
739
762
772
775
770
749
725
699
668
638
607
582
553
528
508
491
481
472
467
471
476
485
493
509
524
539
558
572
583
594
597
603
602
597
589
577
565
549
534
520
506
494
482
473
466
462
457
458
456
458
458
460
463
463
466
470
475
478
481
486
495
509
528
555
591
628
671
713
748
778
799
813
816
804
781
751
719
681
641
601
567
535
511
487
467
453
445
444
444
450
459
472
490
505
523
544
564
582
592
598
599
594
585
573
560
544
525
505
485
465
453
443
438
431
429
427
426
426
426
430
436
441
447
450
455
461
470
485
503
528
566
608
656
702
746
786
813
828
829
819
799
768
735
696
656
619
581
548
521
497
482
469
465
460
458
458
460
466
471
479
494
504
515
526
538
545
548
554
551
544
537
522
505
487
470
458
445
436
427
420
417
413
413
418
420
425
428
432
435
436
439
446
456
474
501
537
587
643
704
763
817
857
883
892
883
863
830
793
751
705
659
620
586
560
536
521
509
501
490
479
475
468
465
466
462
463
464
468
474
477
487
494
499
501
499
497
492
485
472
463
455
447
439
432
425
420
414
413
415
413
415
418
419
419
419
422
424
427
435
448
470
501
541
597
656
715
768
811
838
850
850
836
810
774
733
692
649
611
577
551
532
518
503
493
482
471
464
456
450
443
441
441
439
437
439
443
449
452
456
460
462
459
456
454
446
440
434
426
419
411
407
406
405
404
404
402
402
399
399
400
400
401
403
409
416
428
447
477
510
547
584
619
645
663
671
668
657
639
616
594
567
543
520
503
491
477
470
461
456
452
446
444
439
434
433
430
430
428
431
436
440
446
447
451
452
447
445
440
435
432
427
423
417
412
408
406
405
403
402
400
398
397
397
399
401
399
403
406
410
417
429
450
471
492
512
530
547
556
560
560
555
545
534
519
506
491
478
468
460
455
451
447
444
440
435
432
431
430
426
428
428
431
434
437
443
443
443
443
440
436
433
433
432
428
425
423
421
419
416
417
418
417
418
416
414
412
411
413
413
416
415
418
421
422
428
438
451
462
473
483
490
494
498
497
496
493
487
482
473
468
462
458
457
454
450
448
445
442
438
437
436
435
438
437
437
439
437
441
443
445
446
444
442
439
437
437
435
435
434
434
435
432
432
433
436
437
436
436
435
435
437
436
438
436
436
437
436
434
433
436
438
438
440
440
440
441
444
452
457
464
469
473
478
479
480
480
479
477
476
473
470
465
464
463
462
460
458
458
459
456
457
457
460
458
456
458
455
455
455
456
457
457
457
458
457
456
455
456
460
460
459
458
458
455
452
454
452
452
454
451
449
447
448
453
453
455
454
454
455
453
452
453
454
454
454
455
455
454
454
454
456
455
456
458
459
461
463
467
473
478
482
487
491
492
491
494
494
491
491
487
482
480
475
477
476
474
474
473
472
469
469
472
472
472
471
472
470
466
465
467
469
470
469
471
470
470
469
469
471
471
471
473
470
468
464
466
467
466
466
467
468
467
466
468
470
471
471
472
472
469
469
470
468
467
466
466
465
464
463
466
468
469
469
470
469
470
471
475
480
484
488
496
504
508
512
517
522
523
522
521
517
512
508
507
506
501
498
497
497
495
493
494
494
495
497
497
498
497
498
503
502
503
503
505
502
501
500
501
502
503
500
498
497
496
494
491
491
489
489
491
489
487
487
489
490
490
490
489
490
492
489
489
489
490
491
489
487
485
484
487
486
486
489
490
491
493
496
504
512
523
534
551
569
582
597
610
620
627
628
626
621
612
606
597
593
585
580
575
569
565
559
557
558
555
557
557
559
560
560
564
566
570
576
579
578
578
575
575
573
572
567
563
556
548
542
537
535
532
527
528
523
518
517
518
518
518
520
523
522
522
521
522
521
519
519
517
518
517
514
517
518
519
521
527
538
554
573
600
626
656
685
711
732
746
754
758
751
740
724
706
687
665
649
630
616
603
590
582
576
572
569
570
573
576
581
584
587
593
598
604
607
607
610
607
604
598
590
584
578
569
560
549
542
533
527
522
517
514
511
509
508
504
504
506
511
512
512
513
514
512
513
512
512
511
510
512
516
525
538
557
583
613
648
683
714
744
764
780
785
782
770
752
730
705
676
653
629
608
590
574
559
548
540
536
531
530
530
532
538
540
544
552
560
569
574
578
577
574
569
564
558
548
538
528
517
507
498
492
487
481
477
473
471
471
468
469
471
472
476
475
476
474
472
476
476
478
479
479
479
477
477
478
476
478
475
475
477
480
490
508
533
567
605
650
691
732
767
793
809
812
807
793
771
745
713
684
656
630
604
585
568
555
544
539
532
528
525
523
523
522
521
524
526
530
532
534
536
534
532
531
529
526
519
513
505
496
488
479
473
467
463
457
453
450
448
446
446
445
445
445
446
445
445
451
453
454
455
455
455
454
452
453
453
454
454
452
455
452
449
451
449
449
448
449
451
449
453
460
472
491
513
548
588
634
682
727
767
797
816
822
815
798
771
743
711
675
641
608
581
558
538
527
518
511
507
504
502
499
501
501
501
505
507
509
515
518
521
527
532
531
528
523
517
508
497
487
478
469
462
457
451
445
441
439
437
435
434
436
432
432
433
437
439
440
441
441
441
442
441
444
446
449
451
449
449
447
446
446
445
445
444
443
445
442
442
443
444
445
444
445
444
449
460
477
502
533
574
622
670
717
761
799
827
839
839
826
802
769
732
694
656
619
583
553
530
510
494
486
481
481
482
483
486
488
493
499
505
514
519
525
532
533
532
534
534
530
521
513
502
492
484
473
464
455
450
444
439
436
431
430
431
430
430
430
431
431
432
437
438
440
440
441
443
442
443
447
449
453
452
451
452
449
447
447
447
445
442
442
442
440
439
441
442
442
443
447
453
463
481
506
542
584
634
689
740
784
819
847
859
857
842
817
782
743
698
655
613
575
543
515
491
472
461
462
461
463
467
472
480
486
495
503
512
523
531
540
543
547
545
543
539
532
521
511
497
483
470
461
452
445
444
439
433
430
425
427
427
429
430
430
432
432
434
436
437
439
439
440
440
440
440
443
443
443
444
444
446
443
443
443
443
443
441
443
443
443
443
443
446
447
450
461
475
500
531
579
636
693
752
802
845
874
885
887
874
846
810
762
711
658
605
559
518
484
457
443
432
427
428
433
441
453
464
475
488
498
511
522
533
543
549
554
551
546
539
530
522
508
494
479
467
455
445
438
432
427
424
421
418
419
416
420
420
422
424
424
429
429
430
434
433
434
434
435
437
436
438
439
441
443
442
444
443
441
441
439
440
440
439
440
438
438
437
442
450
465
492
522
564
616
673
734
789
836
872
891
896
883
856
821
773
722
667
615
566
520
481
452
432
419
411
410
413
417
427
440
454
470
484
498
513
525
537
545
551
551
549
544
533
523
508
498
487
472
459
449
442
436
427
422
418
414
416
413
415
414
417
420
421
426
428
432
433
432
431
434
435
436
438
440
438
438
437
439
440
442
443
446
444
442
439
438
438
438
442
452
469
494
526
573
627
685
744
795
836
864
877
878
858
829
788
740
690
640
591
550
510
478
452
434
422
411
408
411
419
433
445
459
475
491
508
524
539
552
561
568
566
562
551
540
527
510
495
480
464
453
443
438
431
426
423
419
418
415
415
418
420
424
426
430
432
434
436
438
441
445
445
446
447
447
446
447
447
448
447
448
447
446
446
448
451
455
464
477
498
526
566
617
674
731
787
832
866
883
884
874
850
814
771
719
667
613
564
520
482
453
434
422
417
414
417
424
437
453
467
486
502
516
531
547
560
565
569
568
562
552
540
527
514
496
481
464
452
441
432
427
423
420
422
421
420
420
420
424
428
432
436
438
440
440
441
444
446
445
447
447
448
445
446
446
444
448
450
458
472
492
524
564
615
672
731
786
831
864
882
887
880
853
819
774
725
671
617
571
528
494
463
442
429
420
417
422
426
435
446
460
475
490
506
521
534
547
555
559
559
554
545
536
527
514
496
480
463
451
441
432
425
419
417
415
413
414
413
417
421
422
425
428
432
435
436
439
441
443
445
446
447
447
448
455
465
482
507
542
587
637
694
749
802
842
866
877
872
853
821
780
734
684
634
585
542
505
476
456
442
433
428
426
428
431
437
450
463
477
491
504
516
527
537
549
549
547
542
533
524
508
493
479
464
455
441
429
419
410
406
402
403
403
403
408
410
413
417
425
429
430
435
438
439
440
438
441
444
447
455
471
495
530
571
625
681
738
792
831
858
869
868
854
822
783
738
691
642
594
552
518
492
471
456
447
440
435
434
437
441
445
454
466
477
488
499
512
524
532
538
538
534
524
512
498
486
472
460
447
437
427
417
412
407
404
403
401
400
400
399
405
408
413
416
421
424
425
426
429
432
438
441
450
463
487
520
564
622
684
746
806
850
883
895
897
883
851
811
762
712
664
615
577
544
516
496
481
471
464
458
455
452
450
447
448
447
448
451
458
466
475
482
489
492
489
487
483
477
471
459
448
435
424
412
403
396
391
388
386
385
383
386
390
397
403
408
412
415
419
420
425
426
428
429
427
430
429
430
433
434
434
432
433
430
428
431
441
462
495
538
592
662
734
806
869
918
948
958
949
924
887
840
791
741
691
647
611
583
564
546
534
523
513
504
492
482
470
461
460
455
454
456
462
470
476
483
488
490
491
485
476
469
458
450
436
427
418
412
405
402
399
400
400
402
402
402
401
400
400
400
401
405
405
409
408
409
410
409
410
413
414
417
417
419
416
415
415
413
412
409
408
405
403
402
407
415
428
448
479
520
571
637
705
776
833
873
898
904
894
870
836
794
749
702
656
615
580
551
534
519
507
498
489
483
475
468
467
464
462
461
458
460
461
464
469
472
473
473
472
471
463
457
451
444
437
429
421
414
408
403
398
397
396
397
397
397
395
396
400
403
405
408
411
412
413
412
414
414
415
414
412
413
416
416
416
417
416
416
415
416
414
412
414
414
413
411
411
412
412
417
425
440
462
490
532
583
644
705
765
818
855
877
882
870
844
807
765
721
672
627
586
552
526
503
488
477
472
467
464
462
458
457
462
464
468
471
476
483
485
489
490
489
490
485
482
475
468
459
451
442
433
424
419
413
407
401
399
398
398
399
400
401
406
407
414
416
419
422
422
423
423
423
425
426
427
428
425
424
423
425
425
425
426
426
427
426
423
424
425
426
426
423
425
427
431
441
458
485
519
567
625
685
744
799
847
879
890
886
865
833
793
741
691
641
593
551
514
486
463
450
442
438
437
438
440
445
451
458
470
481
491
498
505
511
512
514
511
508
501
491
483
471
458
447
438
430
422
416
411
406
404
399
400
402
402
404
406
408
412
414
420
424
427
430
430
431
430
431
433
433
433
432
433
435
430
428
427
427
430
427
428
426
425
426
425
427
424
423
425
426
431
439
459
488
522
570
631
697
766
828
879
913
929
927
906
869
819
761
709
659
618
585
563
552
547
547
553
558
561
563
564
563
562
559
557
555
551
548
550
558
563
562
547
526
494
460
434
412
399
397
403
415
423
434
445
458
465
467
472
474
474
473
475
480
480
475
469
458
443
427
412
402
393
392
395
400
404
408
416
422
426
430
432
435
439
446
455
463
466
466
468
465
460
457
454
451
442
435
431
431
435
446
463
488
519
554
593
629
662
685
696
695
686
670
652
626
601
573
548
526
505
489
476
469
466
462
460
457
457
460
463
467
470
473
478
479
479
478
477
477
470
464
451
436
419
400
381
363
348
332
317
305
295
290
291
296
305
316
332
350
365
385
403
423
440
452
465
474
475
478
478
479
480
476
478
477
480
481
488
499
504
507
511
510
510
509
508
511
510
511
513
518
525
536
561
597
652
724
811
912
979
979
980
979
979
980
979
980
980
979
979
979
979
980
979
960
852
745
649
562
491
438
401
380
370
369
382
397
421
451
489
532
579
625
665
696
711
713
703
685
658
626
595
560
528
498
472
449
429
412
397
384
372
364
360
359
363
373
391
409
426
440
452
462
468
474
478
482
485
488
491
490
489
485
487
489
485
485
486
484
481
475
472
466
458
451
442
438
437
442
457
479
506
537
572
600
619
625
614
586
539
479
416
351
285
228
179
143
111
86
70
63
65
74
92
118
152
199
248
293
332
359
382
392
392
387
375
360
345
328
315
302
293
290
286
289
293
303
319
331
344
358
377
400
424
453
486
521
557
587
616
640
660
673
681
680
670
655
633
605
574
541
509
480
456
443
438
440
444
453
466
480
495
509
525
543
555
566
575
579
581
581
578
570
556
537
514
480
439
396
356
318
288
268
261
267
288
315
353
398
444
485
519
544
554
551
537
509
473
435
400
375
365
373
398
434
476
518
574
624
664
687
688
677
650
614
572
530
493
466
454
451
452
459
468
479
490
499
510
519
528
539
550
557
565
572
580
584
590
596
604
611
611
611
607
602
596
590
585
580
573
566
562
562
569
586
620
662
713
772
832
889
937
976
979
979
979
979
979
959
905
845
784
724
666
611
565
524
490
462
444
432
424
420
420
419
424
430
441
458
475
495
516
540
563
585
607
624
637
641
640
631
613
591
571
551
531
513
498
480
465
460
460
468
477
486
496
504
510
518
526
534
538
535
529
524
518
511
503
494
483
473
464
458
457
462
476
500
528
570
622
681
742
799
853
898
931
953
957
949
927
894
858
809
760
709
663
623
583
551
525
502
485
470
461
454
449
448
448
452
454
456
456
455
455
459
470
487
510
542
575
610
642
667
692
701
694
678
647
611
568
523
481
441
409
382
361
345
332
324
327
331
342
353
368
387
402
418
431
443
448
449
451
452
458
469
491
524
571
634
704
769
831
880
919
946
949
939
910
868
821
767
717
666
616
570
525
488
453
426
406
389
378
370
366
364
363
368
381
400
424
448
475
504
530
555
581
600
616
626
634
635
629
613
596
576
552
528
502
476
454
435
421
407
398
390
384
382
380
375
377
377
379
380
378
381
384
392
406
418
435
460
494
535
581
628
677
722
755
774
780
772
754
726
690
648
599
555
517
488
470
462
464
469
477
485
494
506
513
525
538
548
557
566
572
580
585
587
590
586
578
567
550
531
507
482
458
437
416
395
378
363
347
334
324
318
318
324
337
350
364
381
397
418
433
449
466
478
491
496
502
512
523
539
545
543
539
532
531
534
543
560
582
613
646
679
712
733
751
754
748
734
710
681
650
617
584
554
527
502
478
459
448
440
429
422
416
412
408
408
411
414
414
415
416
417
416
414
415
414
411
408
404
400
394
390
388
386
384
381
380
378
378
379
383
384
389
390
393
394
393
394
396
397
400
399
401
402
404
406
407
412
412
413
416
416
417
419
426
433
442
458
472
491
508
526
552
575
596
610
617
622
622
621
619
617
613
608
604
600
591
586
580
574
569
562
558
553
550
548
549
553
561
568
574
576
575
571
567
560
549
535
524
511
500
490
487
484
482
482
481
479
479
474
474
474
474
475
472
469
464
460
461
461
462
464
472
485
494
503
511
514
517
514
509
502
493
484
474
465
462
464
477
497
523
560
605
654
702
746
781
807
819
820
812
793
768
738
706
676
645
616
594
573
555
538
524
514
505
505
508
511
521
529
538
545
551
555
561
565
568
564
563
552
540
528
515
504
489
478
468
459
451
444
445
447
446
452
454
455
458
457
461
463
466
473
474
476
478
480
480
481
484
484
486
486
483
479
477
474
471
467
469
474
481
498
522
553
587
620
650
675
694
705
708
706
698
687
671
653
636
614
595
581
564
552
540
531
523
511
502
492
484
476
469
470
470
472
480
483
487
488
489
488
484
483
483
486
487
485
483
481
478
475
474
474
472
471
471
465
460
451
445
439
432
430
424
421
420
418
422
426
430
434
437
443
444
452
465
480
501
528
561
597
635
671
705
730
749
756
752
739
715
686
655
627
596
569
546
525
509
495
486
478
472
468
466
465
467
471
476
486
491
501
506
514
518
519
523
524
524
523
516
509
498
488
478
466
459
451
446
443
436
429
429
429
429
429
427
429
427
428
431
437
443
447
454
459
466
467
471
472
469
464
459
454
448
447
453
463
479
503
532
567
607
643
678
704
724
732
731
722
705
685
667
644
622
604
589
576
562
549
537
526
514
500
489
483
478
477
479
483
485
490
497
499
499
498
500
501
495
490
479
469
463
454
447
442
439
433
430
429
428
424
424
424
421
419
420
419
418
419
419
421
424
426
426
427
428
430
432
436
438
438
442
445
448
454
465
483
500
526
558
595
639
679
720
750
771
783
780
765
745
714
678
641
604
569
539
513
491
476
469
464
462
461
464
468
471
478
487
498
510
518
530
539
543
544
542
538
528
516
500
482
466
451
439
432
423
416
411
407
404
401
405
411
418
425
433
441
448
455
462
466
471
472
471
470
463
458
454
448
443
435
431
424
416
413
416
424
438
459
491
530
581
638
696
752
798
831
848
847
835
808
777
739
694
647
603
565
527
494
469
452
440
431
424
423
421
424
433
442
451
461
474
484
489
496
505
511
515
516
513
512
506
498
490
483
477
469
459
448
438
429
422
417
411
406
405
404
405
404
407
412
414
417
419
422
425
427
433
438
442
445
447
451
453
457
463
468
479
495
518
555
598
652
708
763
811
846
867
873
861
838
801
756
708
657
606
555
516
480
456
444
435
433
434
437
444
449
459
468
477
488
498
506
512
519
525
529
533
530
523
515
501
492
479
470
463
456
451
445
438
434
433
431
429
425
422
418
415
412
411
411
411
411
411
410
414
413
418
424
429
436
444
450
455
459
467
474
483
496
515
546
583
628
686
739
789
827
851
860
849
825
791
746
696
643
598
551
513
482
459
446
440
438
438
439
441
445
452
464
471
481
490
497
506
511
517
521
519
514
502
489
479
469
462
456
454
450
448
447
448
448
449
448
442
436
429
421
411
403
398
396
396
396
398
400
404
411
421
433
444
456
467
476
483
486
489
493
490
484
480
479
489
506
537
576
615
651
679
699
707
705
696
678
652
620
591
554
516
470
425
376
330
285
252
228
219
223
241
273
313
358
404
448
487
518
541
556
558
549
532
504
466
429
397
370
348
334
328
328
333
341
358
377
399
416
426
431
432
431
428
416
402
385
373
368
359
358
361
372
390
413
447
486
526
565
604
635
652
654
649
634
613
591
576
563
556
549
543
538
533
530
529
527
523
510
498
484
467
453
438
420
404
394
392
398
409
423
440
455
472
486
501
513
521
524
523
521
514
501
485
466
443
421
398
381
368
362
360
358
358
361
368
380
388
401
410
423
438
450
463
474
487
503
516
541
570
612
670
734
808
883
958
979
979
979
979
980
979
979
979
980
979
960
883
803
725
654
590
535
493
457
437
421
413
412
414
419
428
434
443
452
459
466
470
474
478
479
481
481
480
476
470
463
452
442
434
424
415
407
402
395
388
384
383
384
384
385
389
393
397
405
409
415
419
424
427
427
429
428
431
435
443
459
482
513
552
604
666
732
795
848
887
912
916
907
886
850
806
757
706
657
609
565
534
509
492
479
471
466
464
463
463
465
467
465
464
464
467
470
475
483
488
492
494
496
493
483
469
450
427
406
391
383
382
382
392
402
414
429
443
458
467
477
491
494
492
481
465
446
425
410
401
398
400
403
410
419
431
446
468
496
527
567
615
656
689
714
737
756
765
770
769
761
745
725
703
676
649
623
596
570
549
531
516
497
478
459
440
432
424
427
437
451
468
485
504
519
532
546
559
568
572
565
552
531
506
479
455
434
416
402
392
383
378
377
382
390
397
409
420
433
448
460
476
490
503
509
512
513
511
508
504
499
495
486
475
462
450
442
442
450
467
494
531
576
622
667
713
749
774
787
789
778
757
731
702
668
635
605
576
554
530
511
500
490
483
477
475
472
473
475
480
485
491
499
507
516
526
531
537
539
540
536
532
524
511
498
485
472
464
450
439
430
422
416
413
412
412
413
416
418
419
422
424
426
429
430
431
429
428
427
428
428
427
426
425
426
429
438
458
479
507
539
578
620
656
690
717
733
739
732
716
693
663
629
595
561
529
499
473
453
439
429
421
417
416
416
421
426
431
440
452
465
473
480
486
490
492
488
490
486
483
479
472
467
460
451
443
436
430
423
420
417
412
408
409
408
408
409
409
410
411
410
411
413
414
413
413
409
406
401
405
407
413
416
416
416
425
439
458
483
508
541
572
606
640
669
693
708
714
711
698
680
653
625
598
568
541
515
493
475
458
448
443
442
443
439
439
441
446
453
459
468
475
484
488
491
494
494
494
496
488
485
478
474
467
459
450
444
438
435
428
423
414
417
422
422
423
428
431
434
434
435
437
436
437
435
431
428
426
428
430
435
433
432
435
435
437
442
452
468
489
514
547
583
619
652
683
707
721
724
720
708
689
664
638
611
581
556
530
510
489
473
465
458
456
455
456
460
461
466
474
483
492
498
506
511
512
513
515
514
510
503
497
490
481
472
464
458
451
448
444
440
436
432
432
432
430
430
429
428
426
424
423
423
423
425
423
425
426
429
434
436
437
438
440
441
441
449
458
473
495
518
550
585
621
656
689
716
734
742
742
731
713
690
666
638
607
577
551
529
509
489
482
473
471
469
469
472
477
483
490
496
504
510
515
521
525
529
535
539
539
536
533
528
518
508
498
491
485
478
474
468
466
463
461
462
459
456
454
451
451
449
450
451
450
449
448
450
449
448
455
456
458
459
459
460
460
463
474
484
499
517
541
569
596
623
647
666
680
681
675
665
648
632
609
587
564
542
522
503
487
473
466
462
458
457
457
460
463
469
481
489
499
510
520
530
538
544
551
554
555
552
546
538
527
516
507
498
490
481
474
469
466
465
464
462
461
458
457
457
454
452
449
450
448
446
447
447
449
451
457
463
466
470
472
479
483
490
505
524
551
584
618
651
682
707
730
739
743
735
722
702
673
646
618
587
560
534
513
496
480
466
463
461
460
458
461
462
466
472
480
487
493
501
509
517
522
523
526
528
527
525
518
512
503
492
485
475
466
461
456
450
443
440
441
440
438
438
440
441
441
442
445
448
451
451
452
452
454
456
459
466
474
489
511
533
565
600
637
673
701
720
732
735
729
713
694
670
642
612
582
554
527
503
483
467
456
446
440
437
435
436
442
449
459
465
474
484
492
502
510
516
520
521
521
518
513
507
503
498
493
486
478
472
464
457
453
451
447
445
442
442
441
440
444
445
446
446
446
450
448
448
451
450
450
449
453
460
466
480
501
528
563
600
640
678
711
738
755
765
765
759
741
717
687
656
628
597
567
540
518
500
481
465
457
453
450
449
448
453
457
464
475
486
495
504
511
516
520
520
522
522
513
508
503
499
491
483
477
471
467
460
454
448
441
438
436
435
435
434
435
434
434
435
439
443
443
442
441
443
445
444
443
444
445
448
451
457
468
485
510
541
579
621
663
705
737
765
783
791
786
774
755
726
695
661
630
597
568
541
519
498
478
464
457
454
452
450
450
454
458
463
473
482
489
496
502
506
508
509
510
509
504
501
494
487
476
468
463
455
449
442
437
434
427
422
420
419
420
416
418
417
417
418
417
418
418
416
417
416
420
422
422
425
426
428
427
428
428
424
427
429
433
447
459
473
496
522
555
593
632
667
699
723
736
739
736
725
705
678
649
616
583
551
521
499
477
458
447
438
432
426
425
426
428
432
438
444
452
460
469
479
484
490
493
493
494
491
489
486
483
478
470
465
456
450
447
441
435
432
432
431
428
428
431
433
435
436
436
437
437
437
438
440
441
440
440
439
438
437
440
440
440
442
443
443
443
442
446
447
447
447
449
452
461
476
500
529
571
616
667
722
772
819
857
884
898
899
888
867
836
799
761
722
685
648
617
589
564
544
526
514
501
492
490
488
490
494
505
516
525
538
546
553
558
559
562
558
554
543
531
518
501
486
472
462
453
445
436
430
422
418
418
417
419
419
420
422
422
423
427
431
434
436
438
438
437
436
439
439
438
436
436
435
435
433
436
436
435
434
434
432
431
431
436
445
461
486
516
557
606
661
720
775
820
854
877
886
875
852
820
783
742
695
650
606
568
536
509
488
472
462
457
453
449
448
453
456
463
468
476
485
493
500
510
517
521
526
524
519
511
502
492
480
467
458
448
438
427
418
414
411
408
404
403
404
402
402
404
406
410
411
415
417
417
421
424
427
429
430
431
431
431
430
430
433
434
440
449
464
489
519
563
614
672
729
777
819
847
861
863
852
827
790
749
703
653
607
567
529
497
470
453
438
426
419
417
421
421
423
430
438
448
458
470
486
497
507
513
517
517
513
509
502
495
486
473
460
447
436
429
421
414
408
402
398
394
392
393
393
395
395
399
400
401
401
404
408
412
413
415
417
418
423
436
455
480
514
560
612
668
723
777
819
844
855
852
834
802
759
717
670
621
571
527
489
456
434
418
407
400
396
401
402
403
409
417
426
438
449
461
472
482
492
500
507
510
507
507
498
486
475
465
452
440
428
419
410
403
397
396
398
396
396
396
397
398
397
399
401
401
404
405
408
409
414
423
429
442
459
487
526
572
633
703
772
837
888
925
945
942
925
893
851
798
740
684
626
573
526
487
456
437
424
417
416
416
416
422
427
433
442
448
455
463
470
479
488
495
499
501
500
495
490
484
476
470
459
447
436
424
414
406
400
396
391
390
389
388
390
391
394
397
400
402
403
403
404
408
415
424
441
468
505
552
613
679
747
809
859
893
912
912
895
864
823
775
721
663
609
557
511
477
452
436
423
415
409
405
404
405
412
417
424
433
442
452
461
474
485
490
495
497
496
491
483
477
469
459
449
438
429
419
409
405
401
399
398
398
398
396
396
398
399
402
401
403
409
412
421
438
464
497
534
581
632
682
728
765
790
802
800
786
762
729
690
650
608
568
531
499
470
447
431
419
412
406
409
407
409
412
416
428
438
451
464
475
489
494
498
502
501
499
494
488
478
467
459
449
441
431
421
414
408
404
400
400
400
400
401
404
405
408
412
420
429
440
457
480
508
540
575
617
655
686
709
721
724
715
701
681
653
621
588
555
526
498
476
456
444
434
426
423
419
420
421
427
436
443
450
460
468
475
480
485
490
489
487
485
480
474
467
466
462
456
451
444
439
434
429
428
425
425
423
423
423
423
426
428
430
437
447
464
489
515
549
587
627
662
691
711
723
727
723
711
694
671
647
623
593
566
540
521
503
487
475
466
460
456
452
452
452
453
458
463
469
474
480
487
493
498
499
500
499
496
496
491
485
481
471
465
455
446
441
438
436
435
432
431
428
427
428
432
440
448
465
489
516
552
593
638
683
721
756
782
796
798
790
775
753
726
695
659
627
597
571
552
534
519
506
497
486
474
466
465
469
468
470
474
477
482
483
487
489
491
491
489
484
478
470
465
459
451
444
438
433
428
423
423
421
420
419
420
421
423
426
431
433
437
441
448
462
478
502
537
581
628
673
716
751
772
786
788
779
764
738
712
679
646
619
592
567
547
530
516
501
485
471
465
460
454
453
451
453
457
461
469
476
485
491
494
495
494
489
490
487
479
470
461
452
444
438
431
425
422
419
420
418
416
418
419
422
423
424
428
427
428
428
430
432
433
435
435
434
434
433
436
439
442
452
461
479
501
530
569
614
656
693
720
739
743
738
725
701
674
643
613
583
553
529
511
497
488
477
473
468
466
464
463
466
466
466
469
470
475
477
481
485
485
486
484
482
476
472
471
466
462
455
449
445
439
434
430
427
426
425
427
426
423
423
426
427
428
428
429
432
432
435
437
436
438
440
442
443
444
446
448
450
447
447
445
445
446
452
467
488
510
540
572
606
631
652
669
676
677
670
653
633
608
584
564
542
522
505
496
486
476
467
465
465
464
464
465
467
470
473
477
483
488
495
502
499
498
495
496
495
490
486
479
472
467
460
452
447
442
440
436
436
436
435
436
436
436
437
438
439
439
440
440
440
442
442
445
446
443
443
445
446
446
447
446
445
444
441
440
439
437
436
438
438
439
445
457
476
497
527
561
602
642
677
708
729
741
742
734
717
695
669
643
617
595
572
553
538
523
514
508
503
502
497
499
500
500
503
507
514
520
525
531
530
528
524
521
516
510
504
498
491
482
473
470
469
465
461
457
457
455
451
453
452
451
450
450
451
452
451
455
455
457
457
459
456
455
453
453
455
456
455
455
453
452
450
451
451
453
454
453
451
450
448
447
446
447
452
461
475
497
523
565
615
659
702
738
768
784
790
788
772
749
719
685
650
615
584
560
541
528
516
509
504
499
498
499
502
504
507
514
519
524
529
536
541
543
543
542
536
529
520
511
503
494
484
475
470
466
460
461
459
458
457
455
453
451
451
451
452
452
452
451
450
449
448
451
452
454
455
456
457
455
456
454
454
452
450
450
449
449
448
450
452
451
450
450
449
448
446
448
448
447
452
459
473
495
525
568
618
672
725
771
807
829
840
838
821
794
759
720
681
638
601
569
543
523
505
493
485
482
482
481
483
487
492
500
505
511
519
528
537
543
548
548
545
539
534
527
519
508
496
484
473
461
451
449
442
438
434
432
432
430
429
430
431
433
433
434
436
437
442
444
447
448
448
448
448
449
448
448
447
447
448
446
444
439
440
444
445
445
447
446
446
444
440
440
439
443
443
444
452
463
484
513
551
601
655
714
771
818
856
880
889
880
858
826
784
737
683
635
593
552
516
486
463
451
443
442
442
447
457
468
478
489
501
518
531
543
553
558
565
562
555
548
536
525
511
497
482
464
453
447
440
433
427
425
421
417
415
414
415
416
418
419
420
423
426
429
430
432
438
439
438
438
435
438
438
437
439
438
438
439
436
437
437
436
437
436
434
433
433
433
433
436
434
435
437
440
446
463
488
522
565
623
688
758
829
895
946
979
979
979
979
966
922
871
814
751
690
632
582
540
506
485
474
470
475
484
494
509
522
540
554
566
579
589
601
601
599
597
591
587
573
558
544
525
509
495
482
471
461
455
448
444
440
438
439
440
439
439
439
441
437
436
435
432
432
430
427
426
424
426
427
429
431
433
433
433
434
443
444
448
453
455
455
453
451
449
443
439
429
423
417
415
420
430
452
484
527
587
658
742
827
911
979
979
980
979
980
980
979
979
979
979
893
800
706
619
540
477
431
403
382
359
350
361
403
438
489
876
983
984
984
984
984
984
984
984
985
985
984
985
985
985
984
984
984
984
984
982
983
984
985
984
985
985
985
985
984
984
984
985
984
984
985
984
985
985
985
985
985
985
985
984
984
984
985
985
984
984
984
985
984
984
984
985
985
984
984
984
984
985
984
984
983
984
985
984
984
984
984
985
984
984
984
984
984
984
984
984
984
985
984
984
984
985
984
984
984
984
984
984
984
985
984
984
984
984
984
985
984
983
984
984
984
984
983
984
984
984
984
984
984
984
984
984
985
984
984
984
984
985
984
984
984
984
984
984
984
984
984
984
984
983
984
984
983
983
984
984
984
983
984
984
984
983
983
984
983
984
983
983
984
984
983
984
984
984
983
983
983
984
984
983
928
800
668
545
443
362
310
278
267
274
292
320
348
379
408
433
459
480
498
511
521
531
538
542
546
548
549
549
547
546
543
539
535
532
528
524
521
519
517
515
513
517
523
525
526
527
529
530
527
529
528
529
530
527
527
524
522
523
524
524
524
525
526
525
524
524
525
526
525
525
526
524
524
523
524
525
526
527
527
528
527
528
528
525
525
524
522
522
519
519
521
522
523
523
524
524
522
522
522
522
523
524
527
526
524
526
527
529
529
530
530
525
526
524
522
523
519
519
517
515
515
516
519
521
522
524
523
521
518
518
518
519
519
520
520
516
514
515
518
520
522
522
524
522
520
519
518
518
520
518
517
515
515
517
521
523
521
521
520
518
519
518
518
518
519
520
519
518
520
523
528
531
533
536
535
534
531
530
528
525
525
525
523
524
520
519
518
519
520
519
521
519
516
519
519
523
521
520
520
517
518
520
521
522
522
522
520
519
518
518
518
518
516
517
516
519
517
518
518
517
519
520
519
518
516
517
517
517
516
515
518
519
518
521
523
525
527
528
528
525
523
521
520
519
518
518
518
516
515
517
519
522
524
524
525
526
525
524
526
525
527
527
525
526
522
523
524
522
525
524
523
521
517
519
518
517
514
513
512
509
509
510
511
515
516
519
519
517
514
514
513
512
511
512
512
514
512
514
517
519
521
522
521
520
520
519
519
518
520
518
516
516
514
514
517
518
518
518
517
517
518
516
516
516
517
516
514
512
511
515
518
519
520
521
523
520
517
519
519
518
516
516
517
517
518
518
517
518
518
517
518
517
515
516
518
516
516
515
516
516
516
519
522
524
526
526
526
525
522
522
519
519
519
518
516
513
510
509
511
514
515
516
519
518
517
516
516
515
515
517
516
513
513
515
517
519
520
521
520
518
516
518
519
516
516
516
515
514
511
513
513
515
515
515
516
517
516
517
517
517
517
517
520
517
515
516
516
518
518
521
521
520
520
519
517
516
515
516
513
512
511
511
515
516
519
519
519
517
515
516
515
516
515
514
513
513
511
512
512
514
514
515
515
514
513
514
513
513
512
514
514
509
507
508
509
512
510
509
508
509
510
509
511
511
513
515
515
512
511
516
518
518
517
518
517
515
513
514
514
513
513
512
511
509
507
508
507
507
508
509
511
508
507
507
508
509
509
508
507
505
507
508
513
514
514
514
512
509
507
506
505
502
500
500
499
497
496
492
487
474
461
445
430
414
400
391
387
388
395
401
411
420
432
449
460
471
481
489
496
500
503
504
505
505
504
503
503
502
500
501
502
503
506
507
509
509
510
511
514
516
520
522
527
532
531
534
535
536
538
538
541
539
536
536
534
532
530
528
526
523
522
523
524
525
525
526
526
524
522
519
520
520
519
520
519
519
519
521
524
525
528
530
527
527
525
523
526
524
521
519
519
517
514
513
513
514
515
515
514
514
514
516
516
517
516
516
515
513
510
510
510
513
515
517
517
517
516
515
514
515
516
516
515
513
511
513
516
515
514
514
516
516
513
514
514
513
514
513
511
511
508
510
512
516
518
518
519
515
513
510
503
500
498
498
498
494
493
494
494
498
498
501
501
500
499
500
502
501
502
502
504
503
503
506
508
509
510
512
514
513
512
515
516
517
516
517
517
518
517
521
522
524
525
527
531
530
530
530
532
533
533
535
535
534
530
529
529
529
529
528
526
527
525
525
523
521
520
520
520
517
517
522
527
527
529
528
528
528
526
527
526
525
525
524
523
522
521
524
525
526
526
526
528
527
526
525
523
523
522
522
521
520
516
516
519
517
516
516
513
513
510
511
514
513
514
515
515
516
514
518
520
519
521
521
521
521
518
518
516
515
515
515
515
514
513
514
515
519
519
519
519
516
515
514
513
514
513
516
514
510
510
510
514
515
518
519
518
516
515
515
516
516
517
517
518
515
514
516
516
516
516
517
515
514
512
511
509
509
510
511
512
512
511
514
517
522
522
525
525
523
522
520
519
518
517
515
515
514
514
513
515
515
515
518
516
515
513
513
513
512
512
512
512
512
510
512
514
516
519
517
518
516
517
520
518
517
514
515
514
510
510
508
510
511
511
513
514
514
512
513
515
515
517
518
518
517
517
521
525
526
529
528
528
527
524
525
527
533
536
536
536
532
528
523
515
508
499
493
486
479
475
478
478
483
486
491
495
498
501
507
513
518
520
524
524
525
526
525
524
521
518
517
514
514
510
507
510
508
508
509
509
509
506
510
510
511
512
512
512
513
512
516
520
522
523
521
521
519
518
518
516
515
514
515
515
514
514
513
515
516
515
516
514
512
510
510
510
508
508
508
508
510
509
513
516
518
519
518
519
517
515
515
514
515
514
513
513
511
509
511
511
512
513
516
519
516
516
516
516
518
516
514
513
511
510
510
512
514
516
519
518
516
514
513
513
513
513
513
513
511
508
510
511
512
507
506
504
503
500
504
506
506
511
515
518
517
517
521
522
523
522
522
521
518
516
515
514
513
510
509
506
503
502
502
506
507
509
512
512
513
512
513
515
513
514
513
512
512
509
513
515
515
518
517
518
515
514
515
514
516
515
514
514
511
508
508
509
507
508
511
511
509
509
509
510
510
509
510
510
509
509
510
513
516
518
520
520
521
518
517
517
516
515
514
515
514
514
514
514
517
516
515
515
513
512
513
511
511
509
511
510
507
506
509
512
516
517
519
520
520
520
521
523
524
524
524
520
518
514
513
514
513
514
513
514
511
509
510
509
509
509
508
510
508
506
509
511
512
514
517
521
519
518
517
520
518
515
516
515
511
510
508
508
510
511
513
513
514
513
513
516
514
514
512
511
509
508
513
516
518
522
521
521
520
519
519
518
517
518
516
517
514
509
511
510
512
513
515
516
513
513
514
515
515
515
518
517
516
514
515
517
516
516
515
515
515
513
515
515
514
514
512
513
513
511
512
515
517
522
522
524
522
521
520
518
520
518
517
518
515
516
519
520
523
522
522
521
518
516
514
515
513
512
510
508
507
507
508
510
511
512
514
514
514
513
515
517
517
517
517
518
516
513
515
516
518
519
518
518
517
518
515
515
515
515
516
514
513
513
513
514
514
512
515
516
515
516
515
515
515
513
513
511
508
509
512
519
520
522
522
521
519
517
517
518
518
516
515
514
512
510
509
510
512
514
515
516
514
514
515
515
513
513
513
515
512
511
512
514
517
517
519
518
517
516
515
515
513
513
515
512
512
509
509
510
511
512
512
512
510
509
509
509
510
510
510
510
510
509
512
515
518
519
521
522
519
517
516
516
517
515
514
512
509
508
507
508
508
508
509
508
507
504
505
507
508
511
511
510
509
507
510
512
511
514
515
517
520
517
520
517
516
516
515
514
512
510
512
512
514
514
516
516
514
513
513
513
512
512
512
512
512
508
510
512
514
516
520
520
519
518
516
516
515
515
514
514
514
511
512
514
515
518
517
517
516
515
516
515
515
514
514
513
511
509
511
512
514
514
516
517
516
515
515
516
517
517
518
516
517
517
517
520
520
519
521
519
518
516
516
516
514
514
513
513
513
512
516
519
522
522
523
521
518
517
518
518
517
516
515
515
512
509
510
511
513
514
516
517
518
518
516
518
517
517
519
515
513
511
512
515
515
514
516
516
516
515
517
517
516
515
514
513
511
508
511
512
514
515
515
515
513
514
516
515
517
516
515
515
513
512
512
513
514
514
516
516
515
514
514
515
515
514
513
513
514
513
514
517
517
517
516
515
512
509
510
509
508
511
509
510
509
507
510
511
515
517
518
520
518
517
517
515
515
513
513
513
511
511
511
512
512
513
514
513
513
512
512
513
513
515
515
514
511
510
512
516
519
520
520
522
522
519
517
515
517
516
516
518
515
512
511
512
512
512
514
514
514
514
515
515
517
518
516
515
513
512
513
515
514
514
516
515
513
511
512
512
511
511
512
511
513
511
511
512
513
513
513
515
514
510
512
512
509
510
510
512
511
510
513
515
516
518
521
520
518
520
518
517
517
515
514
512
510
509
509
511
512
515
518
518
514
512
513
514
513
516
516
516
514
512
515
516
516
517
516
517
515
512
512
512
513
512
512
511
511
509
510
510
512
512
513
515
513
514
512
514
513
515
516
515
515
513
515
518
519
521
522
520
519
517
519
518
516
515
517
516
516
515
519
517
518
517
515
514
511
510
511
512
513
513
518
516
514
512
514
516
519
520
520
519
518
517
517
516
516
514
514
513
515
512
510
511
510
510
509
510
511
509
510
510
509
511
509
509
511
511
515
516
519
521
521
520
518
515
515
515
516
514
515
514
512
514
513
514
516
518
519
518
519
518
517
519
518
516
516
513
512
509
512
513
515
517
519
519
518
516
518
518
517
516
516
516
514
513
514
515
516
516
519
519
517
516
515
514
514
512
514
514
512
512
513
516
519
519
524
522
520
517
517
519
518
514
512
510
509
508
510
511
512
513
514
513
512
510
510
510
510
511
511
511
509
509
512
512
515
516
517
520
516
514
512
514
512
508
508
505
503
504
504
506
507
511
509
508
506
505
506
506
505
507
507
507
506
504
507
511
516
517
517
520
519
518
520
517
518
518
518
518
516
518
518
517
517
515
514
513
512
511
510
511
510
510
511
510
511
512
514
516
518
519
521
521
518
515
515
515
514
516
514
513
511
506
506
507
509
512
513
516
514
513
515
515
517
517
516
515
514
511
512
514
514
514
516
515
514
511
511
511
511
511
511
509
508
507
507
510
511
511
514
518
516
513
514
515
517
516
514
513
511
509
509
510
510
511
510
512
511
511
513
514
516
516
515
517
517
516
516
520
519
518
516
515
513
513
512
513
511
512
510
508
506
504
509
513
515
517
518
521
518
516
518
517
517
518
518
517
516
516
518
518
516
515
514
516
511
509
507
508
507
506
509
510
508
512
513
515
517
519
521
519
514
513
513
513
512
512
514
514
514
514
518
521
523
524
524
523
520
516
516
514
514
514
510
508
505
503
507
508
511
513
517
520
518
519
518
518
516
515
514
512
511
509
509
511
511
512
514
516
515
513
514
516
514
516
514
514
513
511
514
515
517
516
515
516
512
510
511
509
509
508
508
508
507
509
511
512
515
516
519
519
515
513
513
516
516
513
512
511
510
510
511
514
516
518
520
518
518
518
517
518
516
513
511
513
512
508
510
511
514
515
516
517
519
521
523
523
524
522
520
518
514
509
509
508
508
506
507
508
507
507
506
509
509
509
512
511
512
513
515
519
519
521
522
522
521
518
517
515
514
512
511
509
508
506
508
510
512
515
516
519
517
517
520
518
519
517
518
518
513
512
512
512
512
512
512
511
510
512
512
514
512
513
514
514
516
515
517
517
518
519
519
518
517
515
513
511
509
508
505
507
505
503
507
508
510
510
511
514
511
511
513
514
518
517
518
515
513
513
512
514
515
515
514
513
516
514
514
514
512
511
510
509
509
507
511
511
511
513
514
514
514
511
512
512
514
514
513
514
511
509
511
510
512
512
514
515
514
513
513
514
513
513
514
511
510
505
505
507
509
512
515
516
516
514
514
512
513
515
517
519
518
514
518
519
521
520
519
518
519
518
519
518
519
522
521
521
518
517
519
520
521
522
523
524
524
519
519
518
518
514
512
509
506
505
505
506
506
509
512
512
512
509
512
512
511
511
511
513
513
512
513
514
516
517
517
517
515
514
514
515
517
522
528
535
544
561
596
651
720
784
799
755
688
616
548
491
446
417
401
392
392
397
408
422
435
450
463
474
484
489
498
503
504
505
502
499
497
495
498
500
502
506
508
510
509
511
512
514
517
520
521
520
518
518
520
522
523
522
523
522
523
524
524
523
524
525
525
525
525
523
526
527
528
531
532
532
532
528
528
526
524
522
518
515
513
511
512
511
513
515
515
516
512
510
511
510
510
508
508
508
505
506
507
511
512
513
513
511
510
507
505
502
499
501
501
500
499
498
501
503
504
504
505
506
507
506
506
506
507
512
511
511
508
508
510
513
516
517
518
519
517
516
516
516
516
514
511
510
508
507
507
510
511
512
514
513
511
508
508
509
508
507
508
507
508
507
510
512
515
515
516
517
516
514
513
513
514
515
515
514
512
514
516
519
522
523
524
523
520
517
516
515
517
515
513
512
512
511
513
517
521
525
528
528
527
525
525
525
524
524
524
523
523
521
519
519
518
518
515
513
510
507
505
501
499
497
496
495
492
489
491
493
496
496
497
499
499
497
495
495
494
491
489
486
482
478
479
481
481
479
483
484
486
485
487
489
488
488
487
487
488
488
494
498
503
507
511
513
516
519
523
526
532
534
535
537
538
540
541
544
544
546
547
546
545
542
540
538
535
532
531
531
532
529
532
536
537
536
536
537
538
536
536
535
533
534
530
530
527
522
521
519
517
517
515
515
510
510
507
504
503
500
498
497
495
496
498
501
502
500
500
497
495
492
489
487
485
484
481
478
476
473
476
480
481
482
483
485
485
485
487
488
489
488
487
487
485
481
482
484
485
488
493
497
500
502
505
509
511
512
515
516
516
516
516
520
519
520
520
515
514
510
508
508
507
507
507
507
506
505
511
515
521
525
526
527
528
525
524
522
521
519
519
518
515
516
517
517
517
518
521
523
523
527
531
535
540
543
545
546
546
546
546
546
543
543
542
540
534
531
531
532
532
534
535
537
540
538
537
537
536
530
526
525
518
509
508
503
501
501
499
499
498
501
506
509
513
513
514
514
511
511
511
511
512
511
513
512
510
508
507
511
512
514
516
518
519
517
520
519
518
519
518
516
515
513
515
516
520
519
520
521
520
520
524
525
528
527
529
527
525
524
524
524
525
524
523
522
518
518
515
517
517
517
516
514
512
509
509
511
512
512
513
512
511
509
509
509
508
507
507
508
507
508
509
511
513
515
517
520
517
517
521
522
521
519
520
521
518
516
517
521
523
522
524
522
523
522
520
516
513
513
514
513
515
512
517
518
519
522
522
520
520
518
518
519
519
521
521
519
518
516
522
523
526
528
531
532
527
525
525
523
522
518
516
514
513
512
511
512
513
514
515
514
513
511
512
514
512
509
510
509
508
506
512
514
518
519
519
519
518
516
516
515
515
516
515
514
511
508
508
508
509
509
511
512
510
510
510
509
511
511
514
513
511
512
515
516
517
518
520
519
518
517
518
519
518
516
514
511
509
506
507
509
512
515
515
515
515
513
518
516
516
515
514
516
512
509
508
507
509
509
511
512
512
510
508
508
508
504
504
503
502
503
505
507
509
510
512
510
510
508
509
510
510
511
511
510
510
506
510
512
515
519
520
520
518
518
518
516
517
517
518
519
517
518
517
518
516
516
517
517
519
519
518
520
518
517
518
515
515
514
514
513
514
517
518
518
517
514
514
514
514
514
514
514
512
510
509
509
507
510
510
511
510
509
510
510
512
511
513
514
510
508
508
511
513
513
516
516
514
514
514
513
512
511
509
508
505
503
504
506
508
511
511
515
513
511
510
508
508
510
508
508
506
501
501
500
500
499
503
509
512
514
519
522
523
521
519
517
515
515
513
513
512
512
513
511
508
507
506
508
508
509
510
509
509
507
512
514
515
514
514
512
511
509
509
508
509
508
507
507
506
506
507
508
509
509
509
508
503
503
505
506
508
509
510
509
507
507
509
512
514
516
517
516
515
513
510
510
508
508
507
507
510
507
509
512
514
518
520
523
524
526
529
529
532
532
530
530
525
523
522
521
522
520
519
517
513
511
508
505
505
504
507
508
509
513
517
522
524
526
530
530
529
527
528
526
525
524
521
520
519
516
517
517
519
520
520
519
516
516
517
519
523
521
520
520
517
516
517
518
520
517
518
519
517
518
516
515
515
515
516
515
516
515
517
521
522
522
521
518
516
512
513
513
513
515
513
512
511
510
512
514
517
521
520
520
519
519
519
517
516
514
515
513
510
506
506
509
510
509
514
512
511
507
508
508
508
507
508
508
510
509
511
514
515
516
517
519
521
516
516
516
515
516
515
514
513
513
515
517
519
520
522
521
519
519
519
520
517
517
516
514
513
512
512
514
515
515
515
513
513
512
511
513
513
512
513
511
509
506
508
510
510
510
511
514
513
512
510
509
509
510
509
510
509
508
509
511
513
515
516
519
517
515
514
512
512
509
509
507
507
507
507
509
509
510
510
508
507
507
511
515
518
520
521
520
520
516
515
517
516
517
515
514
514
510
509
509
509
510
509
510
508
508
509
510
511
512
512
514
512
513
513
515
514
514
513
511
508
506
507
510
510
513
514
514
515
515
515
515
516
516
515
514
513
512
515
514
510
508
508
510
511
513
516
516
519
517
518
516
512
510
510
510
511
511
513
513
512
511
510
511
511
510
513
511
510
508
510
511
512
514
515
515
515
513
514
515
514
514
512
512
513
510
513
513
515
515
513
513
512
512
513
512
512
512
512
512
510
509
511
514
517
518
519
516
513
507
500
491
481
469
462
455
452
451
456
464
468
472
478
483
488
487
489
488
487
488
486
484
482
481
484
486
489
490
492
494
493
492
494
497
500
501
504
506
507
509
512
520
534
552
574
592
606
615
618
617
611
605
594
578
562
545
533
523
514
506
499
497
493
490
491
493
495
499
502
504
505
506
510
512
516
517
518
520
517
517
516
516
517
515
514
513
511
510
508
510
510
510
511
510
508
506
506
506
505
505
505
504
502
499
500
501
500
503
503
505
505
504
508
512
519
522
524
525
524
522
525
524
526
524
521
518
513
509
505
502
499
495
494
493
494
494
497
500
502
504
505
506
506
506
508
507
505
507
505
507
505
501
500
500
501
502
501
501
501
500
501
501
501
501
500
502
501
502
503
505
506
506
506
504
502
501
499
498
497
498
499
499
499
501
502
506
508
510
510
509
509
508
509
510
509
508
509
510
512
509
510
510
515
518
518
518
517
515
515
515
512
509
508
507
506
505
507
510
512
512
515
515
514
513
512
511
510
509
510
508
505
504
506
509
509
511
512
513
515
513
513
514
514
513
512
513
514
512
518
518
520
520
519
516
512
512
509
506
505
505
507
510
509
508
508
510
514
515
515
516
514
513
512
512
511
512
512
511
510
507
510
511
513
514
514
516
515
514
513
512
513
512
510
510
509
507
512
511
512
513
513
514
512
509
508
508
508
508
509
508
506
507
510
513
516
519
522
521
520
518
517
517
516
513
512
510
509
506
